SEP=;
timestamp;deltaTime_0;amplitude[mv]_0;deltaTime_1;amplitude[mv]_1;deltaTime_2;amplitude[mv]_2;deltaTime_3;amplitude[mv]_3;deltaTime_4;amplitude[mv]_4;deltaTime_5;amplitude[mv]_5;deltaTime_6;amplitude[mv]_6;deltaTime_7;amplitude[mv]_7;deltaTime_8;amplitude[mv]_8;deltaTime_9;amplitude[mv]_9;deltaTime_10;amplitude[mv]_10;deltaTime_11;amplitude[mv]_11;deltaTime_12;amplitude[mv]_12;deltaTime_13;amplitude[mv]_13;deltaTime_14;amplitude[mv]_14;deltaTime_15;amplitude[mv]_15;deltaTime_16;amplitude[mv]_16;deltaTime_17;amplitude[mv]_17;deltaTime_18;amplitude[mv]_18;deltaTime_19;amplitude[mv]_19;deltaTime_20;amplitude[mv]_20;deltaTime_21;amplitude[mv]_21;deltaTime_22;amplitude[mv]_22;deltaTime_23;amplitude[mv]_23;deltaTime_24;amplitude[mv]_24;
2021-10-14T18:18:09.806;0;-0,4997559;0;-0,4997559;0;-0,4997559;0;-0,4997559;0;-0,4997559;0;-0,4997559;0;-0,4997559;0;-0,4997559;0;-0,4997559;0;-0,4997559;0;-0,4997559;0;-0,4997559;0;-0,4997559;0;-0,4997559;0;-0,4997559;0;-0,4997559;0;-0,4997559;0;-0,4997559;0;-0,3083496;0;-0,3898926;0;-0,4997559;0;-0,4997559;0;-0,4997559;0;-0,4997559;0;-0,4997559;
2021-10-14T18:18:09.907;0;-0,4997559;0;-0,4997559;0;-0,4997559;0;-0,456543;0;-0,1381836;0;-0,4997559;0;-0,4997559;0;0,5014648;0;0,5014648;0;0,5014648;0;0,5014648;0;0,5014648;0;0,5014648;0;0,5014648;0;0,5014648;0;-0,4997559;0;-0,4997559;0;-0,4997559;0;-0,4997559;0;-0,4997559;0;-0,4997559;0;-0,4997559;0;-0,4997559;0;-0,4997559;0;-0,4997559;
2021-10-14T18:18:10.007;0;-0,4997559;0;-0,4997559;0;-0,4997559;0;-0,4997559;0;-0,4997559;0;-0,4997559;0;-0,4997559;0;-0,4997559;0;-0,4997559;0;-0,4997559;0;-0,4997559;0;-0,4997559;0;-0,4997559;0;-0,4997559;0;-0,4997559;0;-0,4997559;0;-0,4997559;0;-0,4997559;0;-0,4997559;0;-0,4997559;0;-0,4997559;0;-0,4997559;0;-0,4997559;0;-0,4997559;0;-0,4997559;
2021-10-14T18:18:10.108;0;-0,4997559;0;-0,4997559;0;-0,4997559;0;-0,4997559;0;-0,4997559;0;-0,4997559;0;-0,4997559;0;-0,4997559;0;-0,4997559;0;-0,4997559;0;-0,4997559;0;-0,4997559;0;-0,4997559;0;-0,4997559;0;-0,4997559;0;-0,4997559;0;-0,4997559;0;-0,4997559;0;-0,4997559;0;-0,4997559;0;-0,4997559;0;-0,4997559;0;-0,4997559;0;-0,4997559;0;-0,4997559;
2021-10-14T18:18:10.209;0;-0,4997559;0;-0,4997559;0;-0,4997559;0;-0,4997559;0;-0,4997559;0;-0,4997559;0;-0,4997559;0;-0,4997559;0;-0,4997559;0;-0,4997559;0;-0,4997559;0;-0,4997559;0;-0,4997559;0;-0,4997559;0;-0,4997559;0;-0,4997559;0;-0,4997559;0;-0,4997559;0;-0,4997559;0;-0,4997559;0;-0,4997559;0;-0,4997559;0;-0,4997559;0;-0,4997559;0;-0,4997559;
2021-10-14T18:18:10.312;0;-0,4997559;0;-0,4997559;0;-0,4997559;0;-0,4997559;0;-0,4997559;0;-0,4997559;0;-0,4997559;0;-0,4997559;0;-0,4997559;0;-0,4997559;0;-0,4997559;0;-0,4997559;0;-0,4997559;0;-0,4997559;0;-0,4997559;0;-0,4997559;0;-0,4997559;0;-0,4997559;0;-0,4997559;0;-0,4997559;0;-0,4997559;0;-0,4997559;0;-0,4997559;0;-0,4997559;0;-0,4997559;
2021-10-14T18:18:10.412;0;-0,4997559;0;-0,4997559;0;-0,4997559;0;-0,4997559;0;-0,4997559;0;-0,4997559;0;-0,4997559;0;-0,4997559;0;-0,4997559;0;-0,4997559;0;-0,4997559;0;-0,4997559;0;-0,4997559;0;-0,4997559;0;-0,4997559;0;-0,4997559;0;-0,4997559;0;-0,4997559;0;-0,4997559;0;-0,4997559;0;-0,4997559;0;-0,4997559;0;-0,4997559;0;-0,4997559;0;-0,4997559;
2021-10-14T18:18:10.513;0;-0,4997559;0;-0,4997559;0;-0,4997559;0;-0,4997559;0;-0,4997559;0;-0,4997559;0;-0,4997559;0;-0,4997559;0;-0,4997559;0;-0,4997559;0;-0,4997559;0;-0,4997559;0;-0,4997559;0;-0,4997559;0;-0,4997559;0;-0,4997559;0;-0,4997559;0;-0,4997559;0;-0,4997559;0;-0,4997559;0;-0,4997559;0;-0,4997559;0;-0,4997559;0;-0,4997559;0;-0,4997559;
2021-10-14T18:18:10.614;0;-0,4997559;0;-0,4997559;0;-0,4997559;0;-0,4997559;0;-0,4997559;0;-0,4997559;0;-0,4997559;0;-0,4997559;0;-0,4997559;0;-0,4997559;0;-0,4997559;0;-0,4997559;0;-0,4997559;0;-0,4997559;0;-0,4997559;0;-0,4997559;0;-0,4997559;0;-0,4997559;0;-0,4997559;0;-0,4997559;0;-0,4997559;0;-0,4997559;0;-0,4997559;0;-0,4997559;0;-0,4997559;
2021-10-14T18:18:10.714;0;-0,4997559;0;-0,4997559;0;-0,4997559;0;-0,4997559;0;-0,4997559;0;-0,4997559;0;-0,4997559;0;-0,4997559;0;-0,4997559;0;-0,4997559;0;-0,4997559;0;-0,4997559;0;-0,4997559;0;-0,4997559;0;-0,4997559;0;-0,4997559;0;-0,4997559;0;-0,4997559;0;-0,4997559;0;-0,4997559;0;-0,4997559;0;-0,4997559;0;-0,4997559;0;-0,4997559;0;-0,4997559;
2021-10-14T18:18:10.815;0;-0,4997559;0;-0,4997559;0;-0,4997559;0;-0,4997559;0;-0,4997559;0;-0,4997559;0;-0,4997559;0;-0,4997559;0;-0,4997559;0;-0,4997559;0;-0,4997559;0;-0,4997559;0;-0,4997559;0;-0,4997559;0;-0,4997559;0;-0,4997559;0;-0,4997559;0;-0,4997559;0;-0,4997559;0;-0,4997559;0;-0,4997559;0;-0,4997559;0;-0,4997559;0;-0,4997559;0;-0,4997559;
2021-10-14T18:18:10.916;0;-0,4997559;0;-0,4997559;0;-0,4997559;0;-0,4997559;0;-0,4997559;0;-0,4997559;0;-0,4997559;0;-0,4997559;0;-0,4997559;0;-0,4997559;0;-0,4997559;0;-0,4997559;0;-0,4997559;0;-0,4997559;0;-0,4997559;0;-0,4997559;0;-0,4997559;0;-0,4997559;0;-0,4997559;0;-0,4997559;0;-0,4997559;0;-0,4997559;0;-0,4997559;0;-0,4997559;0;-0,4997559;
2021-10-14T18:18:11.017;0;-0,4997559;0;-0,4997559;0;-0,4997559;0;-0,4997559;0;-0,4997559;0;-0,4997559;0;-0,4997559;0;-0,4997559;0;-0,4997559;0;-0,4997559;0;-0,4997559;0;-0,4997559;0;-0,4997559;0;-0,4997559;0;-0,4997559;0;-0,4997559;0;-0,4997559;0;-0,1682129;0;-0,4997559;0;-0,4997559;0;-0,4997559;0;-0,4997559;0;0,5014648;0;-0,3449707;0;-0,4997559;
2021-10-14T18:18:11.118;0;0,5014648;0;0,5014648;0;0,5014648;0;0,5014648;0;0,5014648;0;0,5014648;0;0,5014648;0;0,5014648;0;0,5014648;0;0,5014648;0;0,5014648;0;0,5014648;0;0,5014648;0;0,5014648;0;0,5014648;0;0,5014648;0;0,5014648;0;0,5014648;0;0,5014648;0;0,5014648;0;0,5014648;0;0,5014648;0;0,5014648;0;0,5014648;0;0,5014648;
2021-10-14T18:18:11.219;0;0,5014648;0;0,5014648;0;0,5014648;0;0,5014648;0;0,5014648;0;0,5014648;0;0,5014648;0;0,5014648;0;0,5014648;0;0,5014648;0;0,5014648;0;0,5014648;0;0,5014648;0;0,4899902;0;-0,4997559;0;-0,4997559;0;-0,4997559;0;-0,4997559;0;-0,4997559;0;-0,4997559;0;-0,4997559;0;-0,4997559;0;-0,4997559;0;-0,4997559;0;-0,4997559;
2021-10-14T18:18:11.320;0;-0,4997559;0;-0,4997559;0;-0,4997559;0;-0,4997559;0;-0,4997559;0;-0,4997559;0;-0,4997559;0;-0,4997559;0;-0,4997559;0;-0,4997559;0;-0,4997559;0;-0,4997559;0;-0,4997559;0;-0,4997559;0;-0,4997559;0;-0,4997559;0;-0,4997559;0;-0,4997559;0;-0,4997559;0;-0,4997559;0;-0,4997559;0;-0,4997559;0;-0,4997559;0;-0,4997559;0;-0,4997559;
2021-10-14T18:18:11.421;0;0,5014648;0;0,5014648;0;0,5014648;0;0,5014648;0;0,5014648;0;0,5014648;0;0,5014648;0;0,5014648;0;0,5014648;0;0,5014648;0;0,5014648;0;0,5014648;0;0,5014648;0;0,5014648;0;0,5014648;0;0,5014648;0;0,5014648;0;0,5014648;0;0,5014648;0;0,5014648;0;0,5014648;0;0,5014648;0;0,5014648;0;0,5014648;0;0,5014648;
2021-10-14T18:18:11.521;0;0,5014648;0;0,5014648;0;0,5014648;0;0,5014648;0;0,5014648;0;0,5014648;0;0,5014648;0;0,5014648;0;0,5014648;0;0,5014648;0;0,5014648;0;0,5014648;0;0,5014648;0;0,5014648;0;0,5014648;0;0,5014648;0;0,5014648;0;0,5014648;0;0,5014648;0;0,5014648;0;0,5014648;0;0,5014648;0;0,5014648;0;0,5014648;0;0,5014648;
2021-10-14T18:18:11.622;0;0,5014648;0;0,5014648;0;0,5014648;0;0,5014648;0;0,5014648;0;0,5014648;0;0,5014648;0;0,5014648;0;0,5014648;0;0,5014648;0;0,5014648;0;0,5014648;0;0,5014648;0;0,5014648;0;0,5014648;0;0,5014648;0;0,5014648;0;0,5014648;0;0,5014648;0;0,5014648;0;0,5014648;0;0,5014648;0;0,5014648;0;0,5014648;0;0,5014648;
2021-10-14T18:18:11.722;0;0,5014648;0;0,5014648;0;0,5014648;0;0,5014648;0;0,5014648;0;0,5014648;0;0,5014648;0;-0,4997559;0;-0,4997559;0;-0,4997559;0;-0,4997559;0;-0,4997559;0;-0,4997559;0;-0,4997559;0;-0,4997559;0;-0,4997559;0;-0,4997559;0;-0,4997559;0;-0,4997559;0;-0,4997559;0;0,1433105;0;0,01342773;0;-0,4997559;0;-0,4997559;0;-0,4997559;
2021-10-14T18:18:11.823;0;-0,3815918;0;0,09155273;0;-0,4997559;0;-0,4997559;0;-0,4997559;0;-0,4997559;0;-0,4997559;0;-0,4997559;0;-0,4997559;0;-0,4997559;0;-0,4997559;0;-0,4997559;0;-0,4997559;0;-0,4997559;0;-0,4997559;0;-0,4997559;0;-0,4997559;0;-0,4997559;0;-0,4997559;0;-0,4997559;0;-0,4997559;0;-0,4997559;0;-0,4997559;0;-0,4997559;0;-0,4997559;
2021-10-14T18:18:11.924;0;-0,4997559;0;-0,4997559;0;0,5014648;0;0,5014648;0;0,5014648;0;0,5014648;0;0,5014648;0;0,5014648;0;0,5014648;0;0,5014648;0;0,5014648;0;0,5014648;0;0,5014648;0;0,5014648;0;0,5014648;0;0,5014648;0;0,5014648;0;0,5014648;0;0,5014648;0;0,5014648;0;0,5014648;0;0,5014648;0;0,5014648;0;0,5014648;0;-0,4997559;
2021-10-14T18:18:12.026;0;-0,4997559;0;-0,4997559;0;-0,4997559;0;-0,4997559;0;-0,4997559;0;-0,4997559;0;-0,4997559;0;-0,4997559;0;-0,4997559;0;-0,4997559;0;-0,4997559;0;-0,4997559;0;-0,4997559;0;-0,4997559;0;-0,4997559;0;-0,4997559;0;-0,4997559;0;-0,4997559;0;0,3115234;0;0,5014648;0;0,5014648;0;0,5014648;0;0,5014648;0;0,5014648;0;0,5014648;
2021-10-14T18:18:12.126;0;0,5014648;0;0,5014648;0;0,5014648;0;0,5014648;0;0,5014648;0;0,5014648;0;0,5014648;0;0,5014648;0;0,5014648;0;0,5014648;0;0,5014648;0;0,5014648;0;0,5014648;0;0,5014648;0;0,5014648;0;0,5014648;0;0,5014648;0;0,5014648;0;0,5014648;0;0,5014648;0;0,5014648;0;0,5014648;0;0,5014648;0;0,5014648;0;0,5014648;
2021-10-14T18:18:12.228;0;0,5014648;0;0,5014648;0;0,4382324;0;-0,4997559;0;-0,4997559;0;-0,4997559;0;-0,4997559;0;-0,4997559;0;-0,4997559;0;-0,4997559;0;-0,4997559;0;-0,4997559;0;-0,4997559;0;-0,4997559;0;-0,4997559;0;-0,4997559;0;-0,4997559;0;-0,4997559;0;-0,4997559;0;-0,4997559;0;-0,4997559;0;-0,4997559;0;-0,4997559;0;-0,4997559;0;-0,4997559;
2021-10-14T18:18:12.329;0;-0,4997559;0;-0,4997559;0;-0,4997559;0;-0,4997559;0;-0,4997559;0;-0,4997559;0;-0,4997559;0;-0,4997559;0;-0,4997559;0;-0,4997559;0;-0,4997559;0;-0,4997559;0;-0,4997559;0;-0,4997559;0;0,5014648;0;0,5014648;0;0,5014648;0;0,5014648;0;0,5014648;0;0,5014648;0;0,5014648;0;0,5014648;0;0,5014648;0;0,5014648;0;0,5014648;
2021-10-14T18:18:12.429;0;0,5014648;0;0,5014648;0;0,5014648;0;0,5014648;0;0,5014648;0;0,5014648;0;0,5014648;0;0,5014648;0;0,5014648;0;0,5014648;0;0,5014648;0;0,5014648;0;0,5014648;0;0,5014648;0;0,5014648;0;0,5014648;0;0,5014648;0;0,5014648;0;0,5014648;0;0,5014648;0;0,5014648;0;0,5014648;0;0,5014648;0;0,5014648;0;0,5014648;
2021-10-14T18:18:12.530;0;0,5014648;0;0,5014648;0;0,5014648;0;0,5014648;0;0,5014648;0;0,5014648;0;0,5014648;0;0,5014648;0;0,5014648;0;0,5014648;0;0,5014648;0;0,5014648;0;0,5014648;0;0,5014648;0;0,5014648;0;0,5014648;0;0,5014648;0;0,5014648;0;0,5014648;0;0,5014648;0;0,5014648;0;0,5014648;0;0,5014648;0;0,5014648;0;0,5014648;
2021-10-14T18:18:12.632;0;0,5014648;0;0,5014648;0;0,5014648;0;0,5014648;0;0,5014648;0;0,5014648;0;0,5014648;0;0,5014648;0;0,5014648;0;0,5014648;0;0,5014648;0;0,5014648;0;0,5014648;0;0,5014648;0;0,5014648;0;0,5014648;0;0,5014648;0;0,5014648;0;0,5014648;0;0,5014648;0;0,5014648;0;0,5014648;0;0,5014648;0;0,5014648;0;0,5014648;
2021-10-14T18:18:12.733;0;0,5014648;0;0,5014648;0;0,5014648;0;0,5014648;0;0,5014648;0;0,5014648;0;0,5014648;0;0,5014648;0;0,5014648;0;0,5014648;0;0,5014648;0;0,5014648;0;0,5014648;0;0,5014648;0;0,5014648;0;0,5014648;0;0,5014648;0;0,5014648;0;0,5014648;0;0,5014648;0;0,5014648;0;0,5014648;0;0,5014648;0;0,5014648;0;0,5014648;
2021-10-14T18:18:12.833;0;0,5014648;0;0,5014648;0;0,5014648;0;0,5014648;0;0,5014648;0;0,5014648;0;0,5014648;0;0,5014648;0;0,5014648;0;0,5014648;0;0,5014648;0;0,5014648;0;0,5014648;0;0,5014648;0;0,5014648;0;0,5014648;0;0,5014648;0;0,5014648;0;0,5014648;0;0,5014648;0;0,5014648;0;0,5014648;0;0,5014648;0;0,5014648;0;0,5014648;
2021-10-14T18:18:12.935;0;0,5014648;0;0,5014648;0;0,5014648;0;0,5014648;0;0,5014648;0;0,5014648;0;-0,004882813;0;0,5014648;0;0,5014648;0;0,5014648;0;0,5014648;0;0,5014648;0;0,5014648;0;0,5014648;0;0,5014648;0;0,5014648;0;0,5014648;0;0,5014648;0;0,5014648;0;0,5014648;0;-0,4997559;0;-0,4997559;0;0,5014648;0;0,5014648;0;0,5014648;
2021-10-14T18:18:13.036;0;-0,496582;0;-0,4997559;0;0,5014648;0;0,5014648;0;0,1765137;0;-0,4997559;0;-0,4997559;0;-0,4997559;0;-0,1599121;0;-0,4682617;0;-0,4997559;0;-0,4997559;0;0,5014648;0;0,5014648;0;0,5014648;0;0,5014648;0;0,3898926;0;0,5014648;0;0,5014648;0;0,5014648;0;-0,4997559;0;-0,4997559;0;0,5014648;0;0,5014648;0;0,04833984;
2021-10-14T18:18:13.137;0;-0,4997559;0;-0,4997559;0;-0,4997559;0;-0,4997559;0;-0,4997559;0;-0,4997559;0;-0,4997559;0;-0,4997559;0;-0,4997559;0;-0,4997559;0;-0,4997559;0;-0,4997559;0;-0,4997559;0;0,5014648;0;0,5014648;0;-0,05834961;0;0,5014648;0;0,5014648;0;0,5014648;0;0,5014648;0;0,5014648;0;0,5014648;0;0,5014648;0;0,5014648;0;0,5014648;
2021-10-14T18:18:13.338;0;0,5014648;0;0,5014648;0;0,5014648;0;0,5014648;0;0,5014648;0;0,5014648;0;0,5014648;0;0,5014648;0;0,5014648;0;0,5014648;0;0,5014648;0;0,5014648;0;0,5014648;0;0,5014648;0;0,3615723;0;-0,4997559;0;-0,4997559;0;-0,4997559;0;-0,4997559;0;-0,4997559;0;-0,4997559;0;-0,4997559;0;-0,4997559;0;-0,4997559;0;-0,4997559;
2021-10-14T18:18:13.439;0;-0,4997559;0;-0,4997559;0;-0,4997559;0;-0,4997559;0;-0,4997559;0;-0,4997559;0;-0,4997559;0;-0,2915039;0;0,5014648;0;0,5014648;0;0,5014648;0;0,5014648;0;0,5014648;0;0,5014648;0;0,5014648;0;0,5014648;0;0,5014648;0;0,5014648;0;0,5014648;0;0,5014648;0;0,5014648;0;0,5014648;0;0,5014648;0;0,5014648;0;0,5014648;
2021-10-14T18:18:13.539;0;0,5014648;0;0,5014648;0;0,5014648;0;0,5014648;0;0,208252;0;-0,01171875;0;0,5014648;0;0,5014648;0;0,5014648;0;0,5014648;0;0,5014648;0;0,5014648;0;0,5014648;0;0,5014648;0;0,5014648;0;0,5014648;0;0,5014648;0;0,5014648;0;0,5014648;0;0,5014648;0;0,5014648;0;0,5014648;0;0,5014648;0;0,5014648;0;0,5014648;
2021-10-14T18:18:13.641;0;0,5014648;0;0,5014648;0;0,5014648;0;0,5014648;0;0,0949707;0;0,04174805;0;0,5014648;0;0,5014648;0;0,5014648;0;0,08325195;0;-0,06835938;0;0,4182129;0;0,5014648;0;0,5014648;0;0,3015137;0;0,1184082;0;0,5014648;0;0,5014648;0;0,5014648;0;0,5014648;0;0,5014648;0;0,5014648;0;0,5014648;0;0,5014648;0;0,5014648;
2021-10-14T18:18:13.741;0;0,5014648;0;0,5014648;0;0,5014648;0;0,5014648;0;0,5014648;0;0,5014648;0;0,5014648;0;0,5014648;0;0,5014648;0;0,5014648;0;0,5014648;0;0,5014648;0;0,5014648;0;0,5014648;0;0,5014648;0;0,5014648;0;0,5014648;0;0,5014648;0;0,5014648;0;0,5014648;0;0,5014648;0;0,5014648;0;0,5014648;0;0,5014648;0;0,5014648;
2021-10-14T18:18:13.843;0;0,5014648;0;0,5014648;0;0,5014648;0;0,5014648;0;0,5014648;0;0,5014648;0;0,5014648;0;0,5014648;0;0,5014648;0;0,5014648;0;0,5014648;0;0,5014648;0;0,5014648;0;0,5014648;0;0,5014648;0;0,5014648;0;0,5014648;0;-0,4997559;0;-0,4997559;0;-0,4997559;0;-0,4997559;0;-0,4997559;0;-0,4997559;0;-0,4997559;0;-0,4997559;
2021-10-14T18:18:13.943;0;-0,4997559;0;-0,4997559;0;-0,4997559;0;-0,4997559;0;-0,4997559;0;-0,4997559;0;-0,4997559;0;-0,4997559;0;-0,4997559;0;-0,4997559;0;-0,4997559;0;-0,4997559;0;-0,4997559;0;-0,4997559;0;-0,4997559;0;-0,4997559;0;-0,4997559;0;-0,4997559;0;-0,4997559;0;-0,4997559;0;-0,4997559;0;-0,4997559;0;-0,4997559;0;-0,4997559;0;-0,4997559;
2021-10-14T18:18:14.044;0;-0,4997559;0;-0,4997559;0;-0,4997559;0;-0,4997559;0;-0,4997559;0;-0,4997559;0;-0,4997559;0;-0,4997559;0;-0,4997559;0;-0,4997559;0;-0,4997559;0;-0,4997559;0;-0,4997559;0;-0,4997559;0;-0,4997559;0;-0,4997559;0;-0,4997559;0;-0,4997559;0;-0,4997559;0;-0,4997559;0;-0,4997559;0;-0,4997559;0;-0,4997559;0;-0,4997559;0;-0,4997559;
2021-10-14T18:18:14.145;0;-0,4997559;0;-0,4997559;0;-0,4997559;0;-0,4997559;0;-0,4997559;0;-0,4997559;0;-0,4997559;0;-0,4997559;0;-0,4997559;0;-0,4997559;0;-0,4997559;0;-0,4997559;0;-0,4997559;0;-0,4997559;0;-0,4997559;0;-0,4997559;0;-0,4997559;0;-0,4997559;0;-0,4997559;0;-0,4997559;0;-0,4997559;0;-0,4997559;0;-0,4997559;0;-0,4997559;0;-0,4997559;
2021-10-14T18:18:14.245;0;-0,4997559;0;-0,4997559;0;-0,4997559;0;-0,4997559;0;-0,4997559;0;-0,4997559;0;-0,4997559;0;-0,4997559;0;-0,4997559;0;-0,4997559;0;-0,4997559;0;-0,4997559;0;-0,4997559;0;-0,4997559;0;-0,4997559;0;-0,4997559;0;-0,4997559;0;-0,4997559;0;-0,4997559;0;-0,4997559;0;-0,4997559;0;-0,4997559;0;-0,4997559;0;-0,4997559;0;-0,4997559;
2021-10-14T18:18:14.347;0;-0,4997559;0;-0,4997559;0;-0,4997559;0;-0,4997559;0;-0,4997559;0;-0,4997559;0;-0,4997559;0;-0,4997559;0;-0,4997559;0;-0,4997559;0;-0,4997559;0;-0,4997559;0;-0,4997559;0;-0,4997559;0;-0,4997559;0;-0,4997559;0;-0,4997559;0;-0,4997559;0;-0,4997559;0;-0,4997559;0;-0,4997559;0;-0,4997559;0;-0,4997559;0;-0,4997559;0;-0,4997559;
2021-10-14T18:18:14.447;0;-0,4997559;0;-0,4997559;0;-0,4997559;0;-0,4997559;0;-0,4997559;0;-0,4997559;0;-0,4997559;0;-0,4997559;0;-0,4997559;0;-0,4997559;0;-0,4997559;0;-0,4997559;0;-0,4997559;0;-0,4997559;0;-0,4997559;0;-0,4997559;0;-0,4997559;0;-0,4997559;0;-0,4997559;0;-0,4997559;0;-0,4997559;0;-0,4997559;0;-0,4997559;0;-0,4997559;0;-0,4997559;
2021-10-14T18:18:14.548;0;-0,4997559;0;-0,4997559;0;-0,4997559;0;-0,4997559;0;-0,4997559;0;-0,4997559;0;-0,4997559;0;-0,4997559;0;-0,4997559;0;-0,4997559;0;-0,4997559;0;-0,4997559;0;-0,4997559;0;-0,4997559;0;-0,4997559;0;-0,4997559;0;-0,4997559;0;-0,4997559;0;-0,4997559;0;-0,4997559;0;-0,4997559;0;-0,4997559;0;-0,4997559;0;-0,4997559;0;-0,4997559;
2021-10-14T18:18:14.649;0;-0,4997559;0;-0,4997559;0;-0,4997559;0;-0,4997559;0;-0,4997559;0;-0,4997559;0;-0,4997559;0;-0,4997559;0;-0,4997559;0;-0,4997559;0;-0,4997559;0;-0,4997559;0;-0,4997559;0;-0,4997559;0;-0,4997559;0;-0,4997559;0;-0,4997559;0;-0,4997559;0;-0,4997559;0;-0,4997559;0;-0,4997559;0;-0,4997559;0;-0,4997559;0;-0,4997559;0;-0,4997559;
2021-10-14T18:18:14.750;0;-0,4997559;0;-0,4997559;0;-0,4997559;0;-0,4997559;0;-0,4997559;0;-0,4997559;0;-0,4997559;0;-0,4997559;0;-0,4997559;0;-0,4997559;0;-0,4997559;0;-0,4997559;0;-0,4997559;0;-0,4997559;0;-0,4997559;0;-0,4997559;0;-0,4997559;0;-0,4997559;0;-0,4997559;0;-0,4997559;0;-0,4997559;0;-0,4997559;0;-0,4997559;0;-0,4997559;0;-0,4997559;
2021-10-14T18:18:14.851;0;-0,4997559;0;-0,4997559;0;-0,4997559;0;-0,4997559;0;-0,4997559;0;-0,4997559;0;-0,4997559;0;-0,4997559;0;-0,4997559;0;-0,4997559;0;-0,4997559;0;0,5014648;0;0,5014648;0;0,5014648;0;0,5014648;0;0,5014648;0;0,5014648;0;0,5014648;0;0,1799316;0;-0,4997559;0;-0,4997559;0;-0,4997559;0;-0,4997559;0;-0,4997559;0;-0,4997559;
2021-10-14T18:18:14.952;0;-0,4997559;0;0,4133301;0;0,5014648;0;0,5014648;0;0,5014648;0;0,5014648;0;0,5014648;0;0,5014648;0;0,5014648;0;0,5014648;0;0,5014648;0;0,5014648;0;0,5014648;0;0,5014648;0;0,5014648;0;0,5014648;0;0,5014648;0;0,5014648;0;0,5014648;0;0,5014648;0;0,5014648;0;0,5014648;0;0,5014648;0;0,5014648;0;0,5014648;
2021-10-14T18:18:15.053;0;0,5014648;0;0,5014648;0;0,5014648;0;0,5014648;0;0,5014648;0;0,5014648;0;0,5014648;0;0,5014648;0;0,5014648;0;0,5014648;0;0,5014648;0;0,5014648;0;0,5014648;0;0,5014648;0;0,5014648;0;0,5014648;0;0,5014648;0;0,5014648;0;0,5014648;0;0,5014648;0;0,5014648;0;0,5014648;0;0,5014648;0;0,5014648;0;0,5014648;
2021-10-14T18:18:15.153;0;0,5014648;0;0,5014648;0;0,5014648;0;0,5014648;0;0,5014648;0;0,5014648;0;0,5014648;0;0,5014648;0;0,5014648;0;0,5014648;0;0,5014648;0;0,5014648;0;0,5014648;0;0,5014648;0;0,5014648;0;0,5014648;0;0,5014648;0;0,5014648;0;0,5014648;0;0,5014648;0;0,5014648;0;0,5014648;0;-0,4997559;0;-0,4997559;0;-0,4997559;
2021-10-14T18:18:15.254;0;-0,1816406;0;0,5014648;0;-0,4997559;0;-0,4997559;0;-0,1733398;0;0,5014648;0;0,3432617;0;-0,4997559;0;-0,4997559;0;-0,4997559;0;-0,4997559;0;-0,4997559;0;-0,4997559;0;-0,4997559;0;-0,4997559;0;-0,4997559;0;-0,4997559;0;-0,4997559;0;-0,4997559;0;-0,4997559;0;-0,4997559;0;-0,4997559;0;-0,4997559;0;-0,4997559;0;-0,4997559;
2021-10-14T18:18:15.355;0;-0,4997559;0;-0,4997559;0;-0,4997559;0;-0,4997559;0;-0,4997559;0;-0,4997559;0;-0,4997559;0;-0,4997559;0;-0,4997559;0;-0,4997559;0;-0,4997559;0;0,4099121;0;0,5014648;0;0,3366699;0;0,5014648;0;0,5014648;0;0,5014648;0;-0,246582;0;-0,4997559;0;-0,1115723;0;0,5014648;0;0,5014648;0;-0,4997559;0;-0,4997559;0;-0,4882813;
2021-10-14T18:18:15.456;0;0,5014648;0;0,5014648;0;0,5014648;0;0,5014648;0;0,5014648;0;0,5014648;0;0,5014648;0;0,5014648;0;0,5014648;0;0,5014648;0;0,5014648;0;0,5014648;0;0,5014648;0;0,5014648;0;0,5014648;0;0,5014648;0;0,5014648;0;0,5014648;0;0,0949707;0;0,3183594;0;0,5014648;0;0,3898926;0;-0,4997559;0;-0,4997559;0;-0,4997559;
2021-10-14T18:18:15.557;0;-0,4997559;0;-0,4997559;0;-0,4997559;0;-0,4997559;0;-0,4997559;0;-0,4997559;0;-0,4997559;0;-0,4997559;0;-0,4997559;0;-0,4997559;0;-0,4997559;0;-0,4997559;0;-0,4997559;0;-0,4997559;0;-0,4997559;0;-0,4997559;0;-0,4997559;0;-0,4997559;0;-0,4997559;0;-0,4997559;0;-0,4997559;0;-0,4997559;0;-0,4997559;0;-0,4997559;0;-0,4997559;
2021-10-14T18:18:15.657;0;-0,4997559;0;-0,4997559;0;-0,4997559;0;-0,4997559;0;-0,4997559;0;-0,4997559;0;-0,4997559;0;-0,4997559;0;-0,4997559;0;-0,4997559;0;-0,4997559;0;-0,4997559;0;-0,4997559;0;-0,4997559;0;-0,4997559;0;-0,4997559;0;-0,4997559;0;-0,4997559;0;-0,4997559;0;-0,4997559;0;-0,4997559;0;-0,4997559;0;-0,4997559;0;-0,4997559;0;-0,4997559;
2021-10-14T18:18:15.758;0;-0,4997559;0;-0,4997559;0;-0,4997559;0;-0,4997559;0;-0,4997559;0;-0,4997559;0;-0,4997559;0;-0,4997559;0;-0,4997559;0;-0,4997559;0;-0,4997559;0;-0,4997559;0;-0,4997559;0;-0,4997559;0;-0,4997559;0;-0,4997559;0;-0,4997559;0;-0,4997559;0;-0,4997559;0;-0,4997559;0;-0,4997559;0;-0,4997559;0;-0,4997559;0;-0,4997559;0;-0,4997559;
2021-10-14T18:18:15.859;0;-0,4997559;0;-0,4997559;0;-0,4997559;0;-0,4997559;0;0,5014648;0;0,5014648;0;0,5014648;0;0,5014648;0;0,5014648;0;0,5014648;0;0,5014648;0;0,5014648;0;0,5014648;0;0,5014648;0;0,5014648;0;0,5014648;0;0,5014648;0;0,5014648;0;0,5014648;0;0,5014648;0;0,5014648;0;0,5014648;0;0,5014648;0;0,5014648;0;0,5014648;
2021-10-14T18:18:15.960;0;0,5014648;0;0,5014648;0;0,5014648;0;0,5014648;0;0,5014648;0;0,5014648;0;0,5014648;0;0,5014648;0;0,5014648;0;0,5014648;0;0,5014648;0;0,5014648;0;0,5014648;0;0,5014648;0;0,5014648;0;0,5014648;0;0,5014648;0;0,5014648;0;0,5014648;0;0,5014648;0;0,5014648;0;0,5014648;0;0,5014648;0;0,5014648;0;0,5014648;
2021-10-14T18:18:16.061;0;0,5014648;0;0,5014648;0;0,5014648;0;0,5014648;0;0,5014648;0;0,5014648;0;0,5014648;0;0,5014648;0;0,5014648;0;0,5014648;0;0,5014648;0;0,5014648;0;0,5014648;0;0,5014648;0;0,5014648;0;-0,4997559;0;-0,4997559;0;-0,4997559;0;-0,4997559;0;-0,4997559;0;-0,4997559;0;-0,4997559;0;-0,4997559;0;-0,4997559;0;-0,4997559;
2021-10-14T18:18:16.162;0;-0,4997559;0;-0,4997559;0;-0,4997559;0;-0,4997559;0;-0,4997559;0;-0,4997559;0;0,5014648;0;0,5014648;0;0,5014648;0;0,5014648;0;0,5014648;0;0,5014648;0;0,5014648;0;0,5014648;0;0,5014648;0;0,5014648;0;0,5014648;0;0,5014648;0;0,5014648;0;0,5014648;0;0,5014648;0;0,5014648;0;0,5014648;0;0,5014648;0;0,5014648;
2021-10-14T18:18:16.263;0;0,5014648;0;0,5014648;0;0,5014648;0;0,5014648;0;0,5014648;0;0,5014648;0;0,5014648;0;0,5014648;0;0,5014648;0;0,5014648;0;0,5014648;0;0,5014648;0;0,5014648;0;0,5014648;0;0,5014648;0;0,5014648;0;0,5014648;0;0,5014648;0;0,5014648;0;0,5014648;0;0,5014648;0;0,5014648;0;0,5014648;0;0,5014648;0;0,5014648;
2021-10-14T18:18:16.363;0;0,5014648;0;0,5014648;0;0,5014648;0;0,5014648;0;0,5014648;0;0,5014648;0;0,5014648;0;0,5014648;0;0,5014648;0;0,5014648;0;0,5014648;0;0,5014648;0;0,5014648;0;0,5014648;0;0,5014648;0;0,5014648;0;0,5014648;0;0,5014648;0;0,5014648;0;0,5014648;0;0,5014648;0;0,5014648;0;0,5014648;0;0,5014648;0;0,5014648;
2021-10-14T18:18:16.464;0;0,5014648;0;0,5014648;0;0,5014648;0;0,5014648;0;0,5014648;0;0,5014648;0;0,4033203;0;-0,4997559;0;-0,4997559;0;-0,4997559;0;-0,4997559;0;-0,4997559;0;-0,4997559;0;-0,4997559;0;-0,4997559;0;-0,4997559;0;-0,4997559;0;-0,4997559;0;-0,4997559;0;-0,4997559;0;-0,4997559;0;-0,4997559;0;-0,4997559;0;-0,4997559;0;-0,3349609;
2021-10-14T18:18:16.565;0;0,4216309;0;-0,4997559;0;-0,3366699;0;0,5014648;0;0,5014648;0;0,5014648;0;0,5014648;0;0,5014648;0;0,5014648;0;0,5014648;0;0,5014648;0;0,5014648;0;0,5014648;0;0,5014648;0;0,5014648;0;0,373291;0;0,5014648;0;-0,4997559;0;0,1350098;0;0,5014648;0;0,5014648;0;0,5014648;0;0,5014648;0;0,5014648;0;-0,3515625;
2021-10-14T18:18:16.665;0;-0,4997559;0;-0,4997559;0;-0,4997559;0;-0,4997559;0;-0,4997559;0;-0,4997559;0;-0,4997559;0;-0,4997559;0;-0,4997559;0;-0,4997559;0;-0,4997559;0;0,5014648;0;0,5014648;0;0,5014648;0;0,5014648;0;0,5014648;0;0,5014648;0;0,5014648;0;0,5014648;0;0,5014648;0;0,5014648;0;0,5014648;0;0,5014648;0;0,5014648;0;0,5014648;
2021-10-14T18:18:16.765;0;0,5014648;0;0,5014648;0;0,5014648;0;0,5014648;0;0,5014648;0;0,5014648;0;0,5014648;0;0,5014648;0;0,5014648;0;0,5014648;0;0,5014648;0;0,5014648;0;0,5014648;0;0,5014648;0;0,5014648;0;0,5014648;0;0,5014648;0;0,5014648;0;0,5014648;0;0,5014648;0;0,5014648;0;0,5014648;0;0,5014648;0;0,5014648;0;0,5014648;
2021-10-14T18:18:16.866;0;0,5014648;0;0,5014648;0;0,5014648;0;0,5014648;0;0,5014648;0;0,5014648;0;0,5014648;0;0,5014648;0;0,5014648;0;0,5014648;0;0,5014648;0;0,5014648;0;0,5014648;0;0,5014648;0;0,5014648;0;0,5014648;0;0,5014648;0;0,5014648;0;0,5014648;0;0,5014648;0;0,5014648;0;0,5014648;0;0,5014648;0;0,5014648;0;0,5014648;
2021-10-14T18:18:16.966;0;0,5014648;0;0,5014648;0;0,5014648;0;0,5014648;0;0,5014648;0;0,5014648;0;0,5014648;0;0,5014648;0;0,5014648;0;0,5014648;0;0,5014648;0;0,5014648;0;0,5014648;0;0,5014648;0;0,5014648;0;0,5014648;0;0,5014648;0;0,5014648;0;0,5014648;0;0,5014648;0;0,5014648;0;0,5014648;0;0,5014648;0;0,5014648;0;0,5014648;
2021-10-14T18:18:17.067;0;0,5014648;0;0,5014648;0;0,5014648;0;0,5014648;0;0,5014648;0;0,5014648;0;0,5014648;0;0,5014648;0;0,5014648;0;0,5014648;0;0,5014648;0;0,5014648;0;0,5014648;0;0,5014648;0;0,5014648;0;0,5014648;0;0,5014648;0;0,5014648;0;0,5014648;0;0,5014648;0;0,5014648;0;0,5014648;0;0,5014648;0;0,5014648;0;0,5014648;
2021-10-14T18:18:17.167;0;0,5014648;0;0,5014648;0;0,5014648;0;0,5014648;0;0,5014648;0;0,5014648;0;0,5014648;0;0,5014648;0;0,5014648;0;0,5014648;0;0,5014648;0;0,5014648;0;0,5014648;0;0,5014648;0;0,5014648;0;0,5014648;0;0,5014648;0;0,5014648;0;0,5014648;0;0,5014648;0;0,5014648;0;0,5014648;0;0,5014648;0;0,5014648;0;0,5014648;
2021-10-14T18:18:17.267;0;0,5014648;0;0,5014648;0;0,5014648;0;0,5014648;0;0,5014648;0;0,5014648;0;0,5014648;0;0,5014648;0;0,5014648;0;0,5014648;0;0,5014648;0;0,5014648;0;0,5014648;0;0,5014648;0;0,5014648;0;0,5014648;0;0,5014648;0;0,5014648;0;0,5014648;0;0,5014648;0;0,5014648;0;0,5014648;0;0,5014648;0;0,5014648;0;0,5014648;
2021-10-14T18:18:17.368;0;0,5014648;0;0,5014648;0;0,5014648;0;0,5014648;0;0,5014648;0;0,5014648;0;0,5014648;0;0,5014648;0;0,5014648;0;0,5014648;0;0,5014648;0;0,5014648;0;0,5014648;0;0,5014648;0;0,5014648;0;0,5014648;0;0,5014648;0;0,5014648;0;0,5014648;0;0,5014648;0;0,5014648;0;-0,3481445;0;-0,4997559;0;-0,4997559;0;-0,4997559;
2021-10-14T18:18:17.469;0;-0,4997559;0;-0,4997559;0;-0,4997559;0;-0,4997559;0;-0,4997559;0;-0,4997559;0;-0,4997559;0;-0,4997559;0;-0,4997559;0;-0,4997559;0;-0,4997559;0;-0,4997559;0;-0,4997559;0;-0,4997559;0;-0,4997559;0;-0,4997559;0;-0,4997559;0;-0,4997559;0;-0,4997559;0;-0,4997559;0;-0,4997559;0;-0,4997559;0;-0,4997559;0;-0,4997559;0;-0,4997559;
2021-10-14T18:18:17.570;0;-0,4997559;0;-0,4997559;0;-0,4997559;0;-0,4997559;0;-0,4997559;0;-0,4997559;0;-0,4997559;0;-0,4997559;0;-0,4997559;0;-0,4997559;0;-0,4997559;0;-0,4997559;0;-0,4997559;0;-0,4997559;0;-0,4997559;0;-0,4997559;0;-0,4997559;0;-0,4997559;0;-0,4997559;0;-0,4997559;0;-0,4997559;0;-0,4997559;0;-0,4997559;0;-0,4997559;0;-0,4997559;
2021-10-14T18:18:17.671;0;-0,4997559;0;-0,4997559;0;-0,4997559;0;-0,4997559;0;-0,4997559;0;-0,4997559;0;-0,4997559;0;-0,4997559;0;-0,4997559;0;-0,4997559;0;-0,4997559;0;-0,4997559;0;-0,4997559;0;-0,4997559;0;-0,4997559;0;-0,4997559;0;-0,4997559;0;-0,4997559;0;-0,4997559;0;-0,4997559;0;-0,4997559;0;-0,4997559;0;-0,4997559;0;-0,4997559;0;-0,4997559;
2021-10-14T18:18:17.772;0;-0,4997559;0;-0,4997559;0;-0,4997559;0;-0,4997559;0;-0,4997559;0;-0,4997559;0;-0,4997559;0;-0,4997559;0;-0,4997559;0;-0,4997559;0;-0,4997559;0;-0,4997559;0;-0,4997559;0;-0,4997559;0;-0,4997559;0;-0,4997559;0;-0,4997559;0;-0,4997559;0;-0,4997559;0;-0,4997559;0;-0,4997559;0;-0,4997559;0;-0,4997559;0;-0,4997559;0;-0,4997559;
2021-10-14T18:18:17.872;0;-0,4997559;0;-0,4997559;0;-0,4997559;0;-0,4997559;0;-0,4997559;0;-0,4997559;0;-0,4997559;0;-0,4997559;0;-0,4997559;0;-0,4997559;0;-0,4997559;0;-0,4997559;0;-0,4997559;0;0,2814941;0;-0,4997559;0;-0,4997559;0;-0,4997559;0;-0,4997559;0;-0,4997559;0;-0,4997559;0;-0,4997559;0;-0,4997559;0;-0,4997559;0;-0,4997559;0;-0,4997559;
2021-10-14T18:18:17.973;0;-0,4997559;0;-0,4997559;0;-0,4997559;0;-0,4997559;0;-0,4997559;0;-0,4997559;0;-0,4997559;0;-0,4997559;0;-0,4997559;0;-0,4997559;0;-0,4997559;0;-0,4997559;0;-0,4997559;0;-0,4997559;0;-0,4997559;0;-0,4997559;0;-0,4997559;0;-0,4997559;0;-0,4997559;0;-0,4997559;0;-0,4997559;0;-0,4997559;0;-0,4997559;0;-0,4997559;0;-0,4997559;
2021-10-14T18:18:18.075;0;0,5014648;0;0,5014648;0;0,5014648;0;0,5014648;0;0,5014648;0;0,5014648;0;0,5014648;0;0,5014648;0;0,5014648;0;0,5014648;0;0,5014648;0;0,5014648;0;0,5014648;0;0,5014648;0;0,5014648;0;0,5014648;0;0,5014648;0;0,5014648;0;0,5014648;0;0,5014648;0;0,5014648;0;0,5014648;0;0,5014648;0;0,5014648;0;0,5014648;
2021-10-14T18:18:18.176;0;0,5014648;0;0,5014648;0;0,5014648;0;0,5014648;0;0,5014648;0;0,5014648;0;0,5014648;0;0,5014648;0;0,5014648;0;0,5014648;0;0,5014648;0;0,5014648;0;0,5014648;0;0,5014648;0;0,5014648;0;0,5014648;0;0,5014648;0;0,5014648;0;0,5014648;0;0,5014648;0;0,5014648;0;0,5014648;0;0,5014648;0;0,5014648;0;0,5014648;
2021-10-14T18:18:18.276;0;0,5014648;0;0,5014648;0;0,5014648;0;0,5014648;0;0,5014648;0;0,5014648;0;0,5014648;0;0,5014648;0;0,5014648;0;0,5014648;0;0,5014648;0;0,5014648;0;0,5014648;0;0,5014648;0;0,5014648;0;0,5014648;0;0,5014648;0;0,5014648;0;0,5014648;0;0,5014648;0;0,5014648;0;0,5014648;0;0,5014648;0;0,5014648;0;0,5014648;
2021-10-14T18:18:18.378;0;0,5014648;0;0,5014648;0;0,5014648;0;0,5014648;0;0,5014648;0;0,5014648;0;0,5014648;0;0,5014648;0;0,5014648;0;0,5014648;0;0,5014648;0;0,5014648;0;0,5014648;0;0,5014648;0;0,5014648;0;0,5014648;0;0,5014648;0;0,5014648;0;0,5014648;0;0,5014648;0;0,5014648;0;0,5014648;0;0,5014648;0;0,5014648;0;0,5014648;
2021-10-14T18:18:18.480;0;0,5014648;0;0,5014648;0;0,5014648;0;0,5014648;0;0,5014648;0;0,5014648;0;0,5014648;0;0,5014648;0;0,5014648;0;0,5014648;0;0,5014648;0;0,5014648;0;0,5014648;0;0,5014648;0;0,5014648;0;0,5014648;0;0,5014648;0;0,5014648;0;0,5014648;0;0,5014648;0;0,5014648;0;0,5014648;0;0,5014648;0;0,5014648;0;0,5014648;
2021-10-14T18:18:18.580;0;0,5014648;0;0,5014648;0;0,5014648;0;0,5014648;0;0,5014648;0;0,5014648;0;0,5014648;0;0,5014648;0;0,5014648;0;0,5014648;0;0,5014648;0;0,5014648;0;0,5014648;0;0,5014648;0;0,5014648;0;0,5014648;0;0,5014648;0;0,5014648;0;0,5014648;0;0,5014648;0;0,5014648;0;0,5014648;0;0,5014648;0;0,5014648;0;0,5014648;
2021-10-14T18:18:18.681;0;0,5014648;0;0,5014648;0;0,5014648;0;0,5014648;0;0,5014648;0;0,5014648;0;0,5014648;0;0,5014648;0;0,5014648;0;0,5014648;0;0,5014648;0;0,5014648;0;0,5014648;0;0,5014648;0;0,5014648;0;0,5014648;0;0,5014648;0;0,5014648;0;0,5014648;0;0,5014648;0;0,5014648;0;0,5014648;0;0,5014648;0;0,5014648;0;0,5014648;
2021-10-14T18:18:18.781;0;0,5014648;0;0,5014648;0;0,5014648;0;0,5014648;0;0,5014648;0;0,5014648;0;0,5014648;0;0,5014648;0;0,5014648;0;0,5014648;0;0,5014648;0;0,5014648;0;0,5014648;0;0,5014648;0;0,5014648;0;0,5014648;0;0,5014648;0;0,5014648;0;0,5014648;0;0,5014648;0;0,5014648;0;0,5014648;0;0,5014648;0;0,5014648;0;0,5014648;
2021-10-14T18:18:18.881;0;0,5014648;0;0,5014648;0;0,5014648;0;0,5014648;0;0,5014648;0;0,5014648;0;0,5014648;0;0,5014648;0;0,5014648;0;0,5014648;0;0,5014648;0;0,5014648;0;0,5014648;0;0,5014648;0;0,5014648;0;0,5014648;0;0,5014648;0;0,5014648;0;0,5014648;0;0,5014648;0;0,5014648;0;0,5014648;0;0,5014648;0;0,5014648;0;0,5014648;
2021-10-14T18:18:18.982;0;0,5014648;0;0,5014648;0;0,5014648;0;0,5014648;0;0,5014648;0;0,5014648;0;0,5014648;0;-0,4997559;0;-0,4997559;0;-0,4997559;0;-0,4997559;0;-0,4997559;0;-0,4997559;0;-0,4997559;0;-0,4997559;0;-0,4997559;0;-0,4997559;0;-0,4997559;0;-0,4997559;0;-0,4997559;0;-0,4997559;0;-0,4997559;0;-0,4997559;0;-0,4997559;0;0,5014648;
2021-10-14T18:18:19.083;0;0,5014648;0;0,5014648;0;0,5014648;0;0,5014648;0;0,5014648;0;0,5014648;0;0,5014648;0;0,5014648;0;0,5014648;0;0,5014648;0;0,5014648;0;0,5014648;0;0,5014648;0;0,5014648;0;0,5014648;0;0,5014648;0;0,5014648;0;0,5014648;0;0,5014648;0;0,5014648;0;0,5014648;0;0,5014648;0;0,5014648;0;0,5014648;0;0,5014648;
2021-10-14T18:18:19.184;0;0,5014648;0;0,5014648;0;0,5014648;0;0,5014648;0;0,5014648;0;0,5014648;0;0,5014648;0;0,5014648;0;0,5014648;0;0,5014648;0;0,5014648;0;0,5014648;0;0,5014648;0;-0,02661133;0;-0,4997559;0;-0,4997559;0;-0,2714844;0;-0,4997559;0;-0,4997559;0;-0,4997559;0;-0,4997559;0;-0,4997559;0;-0,4997559;0;-0,4997559;0;-0,4997559;
2021-10-14T18:18:19.285;0;-0,4997559;0;-0,4997559;0;-0,4997559;0;-0,4997559;0;-0,4997559;0;-0,4997559;0;-0,4997559;0;-0,4997559;0;-0,4997559;0;-0,4997559;0;-0,4997559;0;-0,4997559;0;-0,4997559;0;-0,4997559;0;-0,4997559;0;-0,4997559;0;-0,4997559;0;-0,4997559;0;-0,4997559;0;-0,4997559;0;-0,4997559;0;-0,4997559;0;-0,4997559;0;-0,4997559;0;-0,4997559;
2021-10-14T18:18:19.386;0;-0,4997559;0;-0,4997559;0;-0,4997559;0;-0,4997559;0;-0,4997559;0;-0,4997559;0;-0,4997559;0;-0,4997559;0;-0,4997559;0;-0,4997559;0;-0,4997559;0;-0,4997559;0;-0,4997559;0;-0,4997559;0;-0,4997559;0;-0,4997559;0;-0,4997559;0;-0,4997559;0;-0,4997559;0;-0,4997559;0;-0,4997559;0;-0,4997559;0;-0,4997559;0;-0,4997559;0;-0,4997559;
2021-10-14T18:18:19.487;0;-0,4997559;0;-0,4997559;0;-0,4997559;0;-0,4997559;0;-0,4997559;0;-0,4997559;0;-0,4997559;0;-0,4997559;0;-0,4997559;0;-0,4997559;0;-0,4997559;0;-0,4997559;0;-0,4997559;0;-0,4997559;0;-0,4997559;0;-0,4997559;0;-0,4997559;0;-0,4997559;0;-0,4997559;0;-0,4997559;0;-0,4997559;0;-0,4997559;0;-0,4997559;0;-0,4997559;0;-0,4997559;
2021-10-14T18:18:19.587;0;-0,4997559;0;-0,4997559;0;-0,4997559;0;-0,4997559;0;-0,4997559;0;-0,4997559;0;-0,4997559;0;-0,4997559;0;-0,4997559;0;-0,4997559;0;-0,4997559;0;-0,4997559;0;-0,4997559;0;-0,4997559;0;-0,4997559;0;-0,4997559;0;-0,4997559;0;-0,4997559;0;-0,4997559;0;-0,4997559;0;-0,4997559;0;-0,4997559;0;-0,4997559;0;-0,4997559;0;-0,4997559;
2021-10-14T18:18:19.688;0;-0,4997559;0;-0,4997559;0;-0,4997559;0;-0,4997559;0;-0,4997559;0;-0,4997559;0;-0,4997559;0;-0,4997559;0;-0,4997559;0;-0,4997559;0;-0,4997559;0;-0,4997559;0;-0,4997559;0;-0,4997559;0;-0,4997559;0;-0,4997559;0;-0,4997559;0;-0,4997559;0;-0,4997559;0;-0,4997559;0;-0,4997559;0;-0,4997559;0;-0,4997559;0;-0,4997559;0;0,5014648;
2021-10-14T18:18:19.789;0;0,5014648;0;0,5014648;0;0,5014648;0;0,5014648;0;0,5014648;0;0,5014648;0;0,5014648;0;0,5014648;0;0,5014648;0;0,5014648;0;0,5014648;0;0,5014648;0;0,5014648;0;0,5014648;0;0,5014648;0;0,5014648;0;0,5014648;0;0,5014648;0;0,5014648;0;0,5014648;0;0,5014648;0;0,5014648;0;0,5014648;0;0,5014648;0;0,5014648;
2021-10-14T18:18:19.890;0;0,5014648;0;0,5014648;0;0,5014648;0;0,5014648;0;0,5014648;0;0,5014648;0;0,5014648;0;0,5014648;0;0,5014648;0;0,5014648;0;0,5014648;0;0,5014648;0;0,5014648;0;0,5014648;0;0,5014648;0;0,5014648;0;0,5014648;0;0,5014648;0;0,5014648;0;0,5014648;0;0,5014648;0;0,5014648;0;0,5014648;0;0,5014648;0;0,5014648;
2021-10-14T18:18:19.990;0;0,5014648;0;0,5014648;0;0,5014648;0;0,5014648;0;0,5014648;0;0,5014648;0;0,5014648;0;0,5014648;0;0,5014648;0;0,5014648;0;0,5014648;0;0,5014648;0;0,5014648;0;0,5014648;0;0,5014648;0;0,5014648;0;-0,4997559;0;-0,4997559;0;-0,4997559;0;0,5014648;0;0,5014648;0;0,5014648;0;0,5014648;0;0,5014648;0;0,5014648;
2021-10-14T18:18:20.091;0;0,5014648;0;0,5014648;0;0,5014648;0;0,5014648;0;-0,4997559;0;-0,4997559;0;-0,4997559;0;-0,4997559;0;-0,4997559;0;-0,4997559;0;0,5014648;0;0,5014648;0;0,5014648;0;0,5014648;0;0,5014648;0;0,5014648;0;0,5014648;0;0,5014648;0;0,5014648;0;0,5014648;0;0,5014648;0;0,5014648;0;0,5014648;0;0,5014648;0;0,5014648;
2021-10-14T18:18:20.191;0;0,5014648;0;0,5014648;0;0,5014648;0;0,5014648;0;0,5014648;0;0,5014648;0;0,5014648;0;0,5014648;0;0,5014648;0;0,5014648;0;0,5014648;0;0,5014648;0;0,5014648;0;0,5014648;0;0,5014648;0;0,5014648;0;0,5014648;0;0,5014648;0;0,5014648;0;0,5014648;0;0,5014648;0;0,5014648;0;0,5014648;0;0,5014648;0;0,5014648;
2021-10-14T18:18:20.292;0;0,5014648;0;0,5014648;0;0,5014648;0;0,5014648;0;0,5014648;0;0,5014648;0;0,5014648;0;0,5014648;0;0,5014648;0;0,5014648;0;0,5014648;0;0,5014648;0;0,5014648;0;0,5014648;0;0,5014648;0;0,5014648;0;0,5014648;0;0,5014648;0;0,5014648;0;0,5014648;0;0,5014648;0;0,5014648;0;0,5014648;0;0,5014648;0;0,5014648;
2021-10-14T18:18:20.393;0;0,5014648;0;0,5014648;0;0,5014648;0;0,5014648;0;0,5014648;0;0,5014648;0;0,5014648;0;0,5014648;0;0,5014648;0;0,5014648;0;0,5014648;0;0,5014648;0;0,5014648;0;0,5014648;0;0,5014648;0;0,5014648;0;0,5014648;0;0,5014648;0;0,5014648;0;0,5014648;0;0,5014648;0;0,5014648;0;0,5014648;0;0,5014648;0;0,5014648;
2021-10-14T18:18:20.493;0;0,5014648;0;0,5014648;0;0,5014648;0;0,5014648;0;0,5014648;0;0,5014648;0;0,5014648;0;0,5014648;0;0,5014648;0;0,5014648;0;0,5014648;0;0,5014648;0;0,5014648;0;0,5014648;0;0,5014648;0;0,5014648;0;0,5014648;0;0,5014648;0;0,5014648;0;0,5014648;0;0,5014648;0;0,5014648;0;0,5014648;0;0,5014648;0;0,5014648;
2021-10-14T18:18:20.594;0;0,5014648;0;0,5014648;0;0,5014648;0;0,5014648;0;0,5014648;0;0,5014648;0;0,5014648;0;0,5014648;0;0,5014648;0;0,5014648;0;0,5014648;0;0,5014648;0;0,5014648;0;0,5014648;0;0,5014648;0;0,5014648;0;0,5014648;0;0,5014648;0;0,5014648;0;0,5014648;0;-0,4997559;0;-0,4997559;0;-0,4997559;0;-0,4997559;0;-0,4997559;
2021-10-14T18:18:20.694;0;-0,4997559;0;-0,4997559;0;-0,4997559;0;-0,4997559;0;0,1582031;0;0,5014648;0;-0,4997559;0;-0,4997559;0;0,5014648;0;0,5014648;0;0,5014648;0;0,5014648;0;0,5014648;0;0,5014648;0;0,5014648;0;0,5014648;0;0,5014648;0;0,5014648;0;-0,4033203;0;-0,4997559;0;-0,4997559;0;-0,4997559;0;-0,4997559;0;-0,4997559;0;-0,4997559;
2021-10-14T18:18:20.794;0;-0,4997559;0;-0,4997559;0;-0,4997559;0;-0,4997559;0;-0,4997559;0;-0,4997559;0;-0,09155273;0;0,5014648;0;0,5014648;0;0,5014648;0;0,5014648;0;0,5014648;0;0,5014648;0;0,5014648;0;0,5014648;0;0,5014648;0;0,5014648;0;0,5014648;0;0,5014648;0;0,5014648;0;0,5014648;0;-0,4997559;0;-0,4997559;0;0,5014648;0;0,5014648;
2021-10-14T18:18:20.895;0;0,5014648;0;-0,4997559;0;-0,4997559;0;-0,4997559;0;-0,4997559;0;-0,4997559;0;-0,4997559;0;-0,4997559;0;-0,4997559;0;-0,4997559;0;-0,4997559;0;-0,4997559;0;-0,4997559;0;-0,1982422;0;0,5014648;0;0,5014648;0;0,5014648;0;0,5014648;0;0,5014648;0;0,5014648;0;0,5014648;0;0,5014648;0;0,5014648;0;0,5014648;0;0,5014648;
2021-10-14T18:18:20.996;0;0,5014648;0;0,5014648;0;0,5014648;0;0,5014648;0;0,5014648;0;0,5014648;0;0,5014648;0;0,5014648;0;0,5014648;0;0,5014648;0;0,5014648;0;0,5014648;0;0,5014648;0;0,5014648;0;0,5014648;0;0,5014648;0;0,5014648;0;0,333252;0;0,5014648;0;0,5014648;0;-0,4997559;0;-0,4997559;0;-0,4997559;0;-0,4997559;0;-0,4997559;
2021-10-14T18:18:21.097;0;-0,4997559;0;-0,4997559;0;-0,4997559;0;-0,2983398;0;0,5014648;0;-0,05493164;0;-0,4997559;0;-0,4997559;0;0,5014648;0;0,5014648;0;-0,4997559;0;-0,4997559;0;-0,4997559;0;-0,4997559;0;-0,4997559;0;-0,4997559;0;-0,4997559;0;-0,4997559;0;-0,4997559;0;-0,4997559;0;-0,4997559;0;-0,4997559;0;-0,4997559;0;-0,4997559;0;-0,4997559;
2021-10-14T18:18:21.197;0;-0,4997559;0;-0,4997559;0;-0,4997559;0;-0,4997559;0;-0,4997559;0;-0,4997559;0;-0,4997559;0;-0,4997559;0;-0,4997559;0;-0,4997559;0;-0,4997559;0;-0,4997559;0;0,3366699;0;-0,4997559;0;-0,4997559;0;-0,4997559;0;-0,4997559;0;-0,4997559;0;-0,4997559;0;-0,4997559;0;0,5014648;0;0,5014648;0;0,5014648;0;0,5014648;0;0,5014648;
2021-10-14T18:18:21.298;0;0,5014648;0;0,5014648;0;0,5014648;0;0,5014648;0;0,5014648;0;0,5014648;0;0,5014648;0;0,5014648;0;0,5014648;0;0,5014648;0;0,5014648;0;0,5014648;0;0,5014648;0;0,5014648;0;0,5014648;0;0,5014648;0;0,5014648;0;0,5014648;0;0,5014648;0;0,5014648;0;0,2617188;0;-0,4997559;0;0,5014648;0;0,5014648;0;0,5014648;
2021-10-14T18:18:21.398;0;0,5014648;0;0,5014648;0;0,5014648;0;0,5014648;0;0,5014648;0;0,5014648;0;0,5014648;0;0,5014648;0;0,5014648;0;0,5014648;0;0,5014648;0;0,5014648;0;0,5014648;0;0,5014648;0;0,5014648;0;0,5014648;0;0,5014648;0;0,5014648;0;0,5014648;0;0,5014648;0;0,5014648;0;0,5014648;0;0,5014648;0;0,5014648;0;0,5014648;
2021-10-14T18:18:21.499;0;0,5014648;0;0,5014648;0;0,5014648;0;0,5014648;0;0,5014648;0;0,5014648;0;0,5014648;0;0,5014648;0;0,5014648;0;0,5014648;0;0,5014648;0;0,5014648;0;0,5014648;0;0,5014648;0;0,5014648;0;0,5014648;0;0,5014648;0;0,5014648;0;0,5014648;0;0,5014648;0;0,5014648;0;0,5014648;0;0,5014648;0;0,5014648;0;0,5014648;
2021-10-14T18:18:21.600;0;0,5014648;0;0,5014648;0;0,5014648;0;0,5014648;0;0,5014648;0;0,5014648;0;0,5014648;0;0,5014648;0;0,5014648;0;0,5014648;0;0,5014648;0;0,5014648;0;0,5014648;0;0,5014648;0;0,5014648;0;0,5014648;0;0,5014648;0;0,5014648;0;0,5014648;0;0,5014648;0;0,5014648;0;0,5014648;0;0,5014648;0;0,5014648;0;0,5014648;
2021-10-14T18:18:21.701;0;0,5014648;0;0,5014648;0;0,5014648;0;0,5014648;0;0,5014648;0;-0,4997559;0;-0,4997559;0;-0,4997559;0;-0,4997559;0;-0,4997559;0;-0,4997559;0;-0,4997559;0;-0,4997559;0;-0,4997559;0;-0,4997559;0;-0,4997559;0;-0,4997559;0;-0,4997559;0;-0,4997559;0;-0,4997559;0;-0,4997559;0;-0,4997559;0;-0,4997559;0;-0,4997559;0;-0,4997559;
2021-10-14T18:18:21.801;0;-0,4997559;0;-0,4997559;0;-0,4997559;0;-0,4997559;0;-0,4997559;0;-0,4997559;0;-0,4997559;0;-0,4997559;0;-0,4997559;0;-0,4997559;0;-0,4997559;0;-0,4997559;0;-0,1833496;0;0,5014648;0;0,06005859;0;-0,4997559;0;-0,4997559;0;0,05004883;0;0,5014648;0;0,5014648;0;0,5014648;0;0,5014648;0;0,5014648;0;0,5014648;0;0,5014648;
2021-10-14T18:18:21.902;0;0,5014648;0;0,5014648;0;0,5014648;0;0,5014648;0;0,5014648;0;0,5014648;0;0,5014648;0;0,5014648;0;0,5014648;0;0,5014648;0;0,5014648;0;0,4631348;0;0,5014648;0;0,5014648;0;-0,4997559;0;-0,4997559;0;-0,4997559;0;-0,4997559;0;-0,4997559;0;-0,4997559;0;-0,4997559;0;-0,4997559;0;-0,4997559;0;-0,4997559;0;-0,4997559;
2021-10-14T18:18:22.003;0;-0,4997559;0;-0,4997559;0;-0,4997559;0;-0,4997559;0;-0,4997559;0;-0,4997559;0;-0,4997559;0;-0,4997559;0;-0,4997559;0;-0,4997559;0;-0,4997559;0;-0,4997559;0;-0,4997559;0;-0,4997559;0;-0,4997559;0;-0,4997559;0;-0,4997559;0;-0,4997559;0;-0,4997559;0;-0,4997559;0;-0,4997559;0;-0,4997559;0;-0,4997559;0;-0,4997559;0;-0,4997559;
2021-10-14T18:18:22.104;0;-0,4997559;0;-0,4997559;0;-0,4997559;0;-0,4099121;0;-0,4997559;0;-0,4997559;0;-0,4997559;0;0,3032227;0;0,5014648;0;0,5014648;0;0,5014648;0;0,5014648;0;0,5014648;0;0,5014648;0;0,5014648;0;0,5014648;0;0,5014648;0;0,5014648;0;0,5014648;0;0,5014648;0;0,5014648;0;0,5014648;0;0,5014648;0;0,5014648;0;0,5014648;
2021-10-14T18:18:22.205;0;0,5014648;0;0,5014648;0;0,5014648;0;0,5014648;0;0,5014648;0;0,5014648;0;0,5014648;0;0,5014648;0;0,5014648;0;0,5014648;0;0,5014648;0;0,5014648;0;0,5014648;0;0,5014648;0;0,5014648;0;0,5014648;0;0,5014648;0;0,5014648;0;0,5014648;0;0,5014648;0;-0,4997559;0;-0,4997559;0;-0,4997559;0;-0,4997559;0;-0,4997559;
2021-10-14T18:18:22.305;0;-0,4997559;0;-0,4997559;0;-0,4997559;0;-0,2849121;0;-0,4997559;0;-0,4997559;0;-0,4997559;0;-0,4997559;0;-0,4997559;0;-0,4997559;0;0,5014648;0;0,5014648;0;0,5014648;0;0,5014648;0;0,5014648;0;0,5014648;0;0,5014648;0;0,5014648;0;0,5014648;0;0,5014648;0;0,5014648;0;0,5014648;0;0,5014648;0;0,5014648;0;0,5014648;
2021-10-14T18:18:22.406;0;0,5014648;0;0,5014648;0;0,5014648;0;0,5014648;0;0,5014648;0;0,3215332;0;-0,4997559;0;-0,4997559;0;-0,4997559;0;-0,4997559;0;-0,4997559;0;-0,4997559;0;-0,4997559;0;-0,4997559;0;-0,4997559;0;-0,4997559;0;-0,4997559;0;0,453125;0;0,5014648;0;0,5014648;0;0,4914551;0;0,5014648;0;0,5014648;0;0,5014648;0;-0,4997559;
2021-10-14T18:18:22.506;0;-0,4997559;0;-0,4997559;0;-0,4997559;0;-0,4997559;0;-0,4997559;0;-0,4997559;0;-0,4997559;0;-0,4997559;0;-0,4997559;0;-0,4997559;0;-0,4997559;0;-0,4997559;0;0,5014648;0;0,5014648;0;0,5014648;0;-0,4997559;0;-0,4997559;0;0,5014648;0;-0,07324219;0;-0,4997559;0;-0,4997559;0;-0,4997559;0;-0,4997559;0;-0,4997559;0;-0,4997559;
2021-10-14T18:18:22.708;0;-0,2700195;0;0,5014648;0;0,5014648;0;0,5014648;0;0,5014648;0;0,5014648;0;0,5014648;0;0,5014648;0;0,5014648;0;0,5014648;0;0,5014648;0;0,5014648;0;0,5014648;0;0,5014648;0;0,5014648;0;0,5014648;0;0,5014648;0;0,5014648;0;0,5014648;0;0,5014648;0;0,5014648;0;0,5014648;0;0,5014648;0;0,5014648;0;0,5014648;
2021-10-14T18:18:22.808;0;0,5014648;0;0,5014648;0;0,5014648;0;0,5014648;0;-0,4997559;0;-0,4997559;0;-0,4997559;0;-0,4997559;0;-0,4997559;0;-0,4997559;0;-0,4997559;0;-0,4997559;0;-0,4997559;0;-0,4997559;0;-0,4997559;0;-0,4997559;0;-0,2148438;0;0,5014648;0;0,5014648;0;-0,4997559;0;-0,09326172;0;0,5014648;0;0,5014648;0;0,5014648;0;-0,4997559;
2021-10-14T18:18:22.909;0;-0,4997559;0;0,1381836;0;0,5014648;0;-0,4997559;0;-0,4997559;0;-0,4997559;0;-0,4997559;0;-0,2399902;0;-0,4997559;0;-0,4997559;0;-0,4997559;0;-0,4997559;0;-0,4997559;0;-0,4997559;0;-0,4997559;0;-0,4997559;0;-0,4997559;0;-0,4997559;0;-0,4997559;0;-0,4997559;0;-0,4997559;0;-0,4997559;0;-0,4997559;0;-0,4997559;0;-0,4997559;
2021-10-14T18:18:23.010;0;-0,4997559;0;-0,4997559;0;-0,4997559;0;-0,4997559;0;-0,4997559;0;-0,4997559;0;-0,4997559;0;-0,4997559;0;-0,4997559;0;-0,4997559;0;-0,4997559;0;-0,4997559;0;-0,4997559;0;-0,4997559;0;-0,4997559;0;-0,4997559;0;-0,4997559;0;-0,4997559;0;-0,4997559;0;-0,4997559;0;-0,4997559;0;-0,4997559;0;-0,4997559;0;-0,4997559;0;-0,4997559;
2021-10-14T18:18:23.111;0;-0,4997559;0;-0,4997559;0;-0,4997559;0;-0,4997559;0;-0,4997559;0;-0,4997559;0;-0,4997559;0;-0,4997559;0;-0,4997559;0;-0,4997559;0;-0,4997559;0;-0,4997559;0;-0,4997559;0;-0,4997559;0;-0,4997559;0;-0,4997559;0;-0,4997559;0;-0,4997559;0;-0,4997559;0;-0,4997559;0;-0,4997559;0;-0,4997559;0;-0,4997559;0;-0,4997559;0;-0,4997559;
2021-10-14T18:18:23.211;0;-0,4997559;0;-0,4997559;0;-0,4997559;0;-0,4997559;0;-0,4997559;0;-0,4997559;0;-0,4997559;0;-0,4997559;0;-0,4997559;0;-0,4997559;0;-0,4997559;0;-0,4997559;0;-0,4997559;0;-0,4997559;0;-0,4997559;0;0,02001953;0;0,5014648;0;0,5014648;0;0,5014648;0;0,5014648;0;0,5014648;0;0,5014648;0;0,5014648;0;0,5014648;0;0,5014648;
2021-10-14T18:18:23.312;0;0,5014648;0;0,5014648;0;-0,4997559;0;-0,4997559;0;-0,4997559;0;-0,4997559;0;-0,4997559;0;-0,4997559;0;-0,4997559;0;-0,4997559;0;-0,4997559;0;-0,4997559;0;-0,4997559;0;-0,4997559;0;-0,4997559;0;-0,4997559;0;-0,4997559;0;-0,4997559;0;-0,4997559;0;-0,4997559;0;-0,4997559;0;-0,4997559;0;-0,4997559;0;-0,4997559;0;-0,4997559;
2021-10-14T18:18:23.412;0;-0,4997559;0;-0,4997559;0;-0,4997559;0;-0,4997559;0;-0,4997559;0;-0,4997559;0;-0,4997559;0;-0,4997559;0;-0,4997559;0;-0,4997559;0;-0,4997559;0;-0,4997559;0;-0,4997559;0;-0,4997559;0;-0,4997559;0;-0,4997559;0;-0,4997559;0;-0,4997559;0;-0,4997559;0;-0,4997559;0;-0,4997559;0;-0,4997559;0;-0,4997559;0;-0,4997559;0;-0,4997559;
2021-10-14T18:18:23.513;0;-0,4997559;0;-0,4997559;0;-0,4997559;0;-0,4997559;0;-0,4997559;0;-0,4997559;0;-0,4997559;0;-0,4997559;0;-0,4997559;0;-0,1750488;0;0,5014648;0;0,5014648;0;0,5014648;0;0,5014648;0;0,5014648;0;0,5014648;0;0,5014648;0;0,5014648;0;0,4482422;0;0,5014648;0;0,5014648;0;0,5014648;0;0,5014648;0;0,5014648;0;0,5014648;
2021-10-14T18:18:23.613;0;0,5014648;0;0,5014648;0;0,5014648;0;0,5014648;0;0,5014648;0;0,5014648;0;0,5014648;0;0,5014648;0;0,5014648;0;0,5014648;0;0,5014648;0;0,5014648;0;0,5014648;0;0,5014648;0;0,5014648;0;0,4499512;0;-0,4997559;0;-0,4997559;0;-0,4997559;0;0,5014648;0;0,5014648;0;0,5014648;0;0,2583008;0;-0,4997559;0;-0,4997559;
2021-10-14T18:18:23.713;0;-0,4997559;0;-0,4997559;0;-0,4997559;0;-0,4997559;0;-0,4997559;0;-0,4997559;0;-0,4997559;0;-0,4997559;0;-0,4997559;0;-0,4997559;0;-0,4997559;0;-0,4997559;0;-0,4997559;0;-0,4997559;0;-0,4997559;0;-0,4997559;0;-0,4997559;0;0,4133301;0;0,5014648;0;0,5014648;0;0,5014648;0;0,5014648;0;0,5014648;0;-0,3166504;0;-0,4997559;
2021-10-14T18:18:23.814;0;0,4199219;0;0,5014648;0;0,5014648;0;-0,4997559;0;-0,4997559;0;-0,4997559;0;-0,4997559;0;0,5014648;0;0,5014648;0;0,5014648;0;0,5014648;0;0,5014648;0;0,5014648;0;0,5014648;0;0,5014648;0;0,5014648;0;0,5014648;0;0,5014648;0;0,5014648;0;0,5014648;0;0,5014648;0;0,5014648;0;0,5014648;0;0,5014648;0;0,5014648;
2021-10-14T18:18:23.915;0;0,5014648;0;0,5014648;0;0,5014648;0;0,5014648;0;0,5014648;0;0,5014648;0;0,5014648;0;0,5014648;0;0,5014648;0;0,003417969;0;-0,4997559;0;-0,4997559;0;-0,4997559;0;-0,4997559;0;-0,4997559;0;-0,4997559;0;-0,4997559;0;-0,4997559;0;-0,4997559;0;-0,4997559;0;-0,4997559;0;0,5014648;0;0,5014648;0;0,5014648;0;0,5014648;
2021-10-14T18:18:24.016;0;0,5014648;0;0,5014648;0;0,5014648;0;0,5014648;0;0,5014648;0;0,5014648;0;0,5014648;0;0,5014648;0;0,5014648;0;0,5014648;0;0,5014648;0;0,5014648;0;0,5014648;0;0,5014648;0;0,5014648;0;0,5014648;0;0,5014648;0;0,5014648;0;0,5014648;0;0,5014648;0;0,5014648;0;0,5014648;0;0,5014648;0;0,5014648;0;0,5014648;
2021-10-14T18:18:24.116;0;0,5014648;0;0,5014648;0;0,5014648;0;0,5014648;0;0,5014648;0;0,5014648;0;0,5014648;0;0,5014648;0;0,5014648;0;0,5014648;0;0,5014648;0;0,5014648;0;0,5014648;0;0,5014648;0;0,5014648;0;0,5014648;0;0,5014648;0;0,5014648;0;0,5014648;0;0,5014648;0;0,5014648;0;0,5014648;0;0,5014648;0;0,5014648;0;0,5014648;
2021-10-14T18:18:24.216;0;0,5014648;0;0,5014648;0;0,5014648;0;0,5014648;0;0,5014648;0;0,5014648;0;0,5014648;0;0,5014648;0;0,5014648;0;0,5014648;0;0,5014648;0;0,5014648;0;0,5014648;0;0,5014648;0;0,5014648;0;0,5014648;0;0,5014648;0;0,5014648;0;0,5014648;0;0,5014648;0;0,5014648;0;0,5014648;0;0,5014648;0;0,5014648;0;0,5014648;
2021-10-14T18:18:24.317;0;0,5014648;0;0,5014648;0;0,5014648;0;0,5014648;0;0,5014648;0;0,5014648;0;0,5014648;0;0,5014648;0;0,5014648;0;0,5014648;0;0,5014648;0;0,5014648;0;0,5014648;0;0,5014648;0;0,5014648;0;0,5014648;0;0,5014648;0;0,5014648;0;0,5014648;0;0,5014648;0;0,5014648;0;0,5014648;0;0,5014648;0;0,5014648;0;0,5014648;
2021-10-14T18:18:24.417;0;0,5014648;0;0,5014648;0;0,5014648;0;0,5014648;0;0,5014648;0;0,5014648;0;0,5014648;0;0,5014648;0;0,5014648;0;0,5014648;0;0,5014648;0;0,5014648;0;0,5014648;0;0,5014648;0;0,5014648;0;0,5014648;0;0,5014648;0;0,5014648;0;0,5014648;0;0,5014648;0;0,5014648;0;0,5014648;0;0,5014648;0;0,5014648;0;0,5014648;
2021-10-14T18:18:24.518;0;0,5014648;0;0,5014648;0;0,5014648;0;0,5014648;0;0,5014648;0;0,5014648;0;0,5014648;0;0,5014648;0;0,5014648;0;0,5014648;0;0,5014648;0;0,5014648;0;0,5014648;0;0,5014648;0;0,5014648;0;0,5014648;0;0,5014648;0;0,5014648;0;0,5014648;0;0,5014648;0;0,5014648;0;0,5014648;0;0,5014648;0;0,5014648;0;0,5014648;
2021-10-14T18:18:24.618;0;0,5014648;0;0,5014648;0;0,5014648;0;0,5014648;0;0,5014648;0;0,5014648;0;0,5014648;0;0,5014648;0;0,5014648;0;0,5014648;0;0,5014648;0;0,5014648;0;0,5014648;0;0,5014648;0;0,5014648;0;0,5014648;0;0,5014648;0;0,5014648;0;0,5014648;0;0,5014648;0;0,5014648;0;0,5014648;0;0,5014648;0;0,5014648;0;0,5014648;
2021-10-14T18:18:24.719;0;0,5014648;0;0,5014648;0;0,5014648;0;0,5014648;0;0,5014648;0;0,5014648;0;0,5014648;0;0,5014648;0;0,5014648;0;0,5014648;0;0,5014648;0;0,5014648;0;0,5014648;0;0,5014648;0;0,5014648;0;0,5014648;0;0,5014648;0;0,5014648;0;0,5014648;0;0,5014648;0;0,5014648;0;0,5014648;0;0,5014648;0;0,5014648;0;0,5014648;
2021-10-14T18:18:24.820;0;0,5014648;0;0,5014648;0;0,5014648;0;0,5014648;0;0,5014648;0;0,5014648;0;0,5014648;0;0,5014648;0;0,5014648;0;0,5014648;0;0,5014648;0;0,5014648;0;0,5014648;0;0,5014648;0;0,5014648;0;0,5014648;0;0,5014648;0;0,5014648;0;0,5014648;0;0,5014648;0;0,5014648;0;0,5014648;0;0,5014648;0;0,5014648;0;0,5014648;
2021-10-14T18:18:24.921;0;0,5014648;0;0,5014648;0;0,5014648;0;0,5014648;0;0,5014648;0;0,5014648;0;0,5014648;0;0,5014648;0;0,5014648;0;0,5014648;0;0,5014648;0;0,5014648;0;0,5014648;0;0,5014648;0;0,5014648;0;0,5014648;0;0,5014648;0;0,5014648;0;0,5014648;0;0,5014648;0;0,5014648;0;0,5014648;0;0,5014648;0;0,5014648;0;0,5014648;
2021-10-14T18:18:25.021;0;0,5014648;0;0,5014648;0;0,5014648;0;0,5014648;0;0,5014648;0;0,5014648;0;0,5014648;0;0,5014648;0;0,5014648;0;0,5014648;0;0,5014648;0;0,5014648;0;0,5014648;0;0,5014648;0;0,5014648;0;0,5014648;0;0,5014648;0;0,5014648;0;0,5014648;0;0,5014648;0;0,5014648;0;0,5014648;0;0,5014648;0;0,5014648;0;0,5014648;
2021-10-14T18:18:25.122;0;0,5014648;0;0,5014648;0;0,5014648;0;0,5014648;0;0,5014648;0;0,5014648;0;0,5014648;0;0,5014648;0;0,5014648;0;0,5014648;0;0,5014648;0;0,5014648;0;0,5014648;0;0,5014648;0;0,5014648;0;0,5014648;0;0,5014648;0;0,5014648;0;0,5014648;0;0,5014648;0;0,5014648;0;0,5014648;0;0,5014648;0;0,5014648;0;0,5014648;
2021-10-14T18:18:25.223;0;0,5014648;0;0,5014648;0;0,5014648;0;0,5014648;0;0,5014648;0;0,5014648;0;0,5014648;0;0,5014648;0;0,5014648;0;0,5014648;0;0,5014648;0;0,5014648;0;0,5014648;0;0,5014648;0;0,5014648;0;0,5014648;0;0,5014648;0;0,5014648;0;0,5014648;0;0,5014648;0;0,5014648;0;0,5014648;0;0,5014648;0;0,5014648;0;0,5014648;
2021-10-14T18:18:25.323;0;0,5014648;0;0,5014648;0;0,5014648;0;0,5014648;0;0,5014648;0;0,5014648;0;0,5014648;0;0,5014648;0;0,5014648;0;0,5014648;0;0,5014648;0;0,5014648;0;0,5014648;0;0,5014648;0;0,5014648;0;0,5014648;0;0,5014648;0;0,5014648;0;0,5014648;0;0,5014648;0;0,5014648;0;0,5014648;0;0,5014648;0;0,5014648;0;0,5014648;
2021-10-14T18:18:25.424;0;0,5014648;0;0,5014648;0;0,5014648;0;0,5014648;0;0,5014648;0;0,5014648;0;0,5014648;0;0,5014648;0;0,5014648;0;0,5014648;0;0,5014648;0;0,5014648;0;0,5014648;0;0,5014648;0;0,5014648;0;0,5014648;0;0,5014648;0;0,5014648;0;0,5014648;0;0,5014648;0;0,5014648;0;0,5014648;0;0,5014648;0;0,5014648;0;0,5014648;
2021-10-14T18:18:25.525;0;0,5014648;0;0,5014648;0;0,5014648;0;0,5014648;0;0,5014648;0;0,5014648;0;0,5014648;0;0,5014648;0;0,5014648;0;0,5014648;0;0,5014648;0;0,5014648;0;0,5014648;0;0,5014648;0;0,5014648;0;0,5014648;0;0,5014648;0;0,5014648;0;0,5014648;0;0,5014648;0;0,5014648;0;0,5014648;0;0,5014648;0;0,5014648;0;0,5014648;
2021-10-14T18:18:25.626;0;0,5014648;0;0,5014648;0;0,5014648;0;0,5014648;0;0,5014648;0;0,5014648;0;0,5014648;0;0,5014648;0;0,5014648;0;0,5014648;0;0,5014648;0;0,5014648;0;0,5014648;0;0,5014648;0;0,5014648;0;0,5014648;0;0,5014648;0;0,5014648;0;0,5014648;0;0,5014648;0;0,5014648;0;0,5014648;0;0,5014648;0;0,5014648;0;0,5014648;
2021-10-14T18:18:25.726;0;0,5014648;0;0,5014648;0;0,5014648;0;0,5014648;0;0,5014648;0;0,5014648;0;0,5014648;0;0,5014648;0;0,5014648;0;0,5014648;0;0,5014648;0;0,5014648;0;0,5014648;0;0,5014648;0;0,5014648;0;0,5014648;0;0,5014648;0;0,5014648;0;0,5014648;0;0,5014648;0;0,5014648;0;0,5014648;0;0,5014648;0;0,5014648;0;0,5014648;
2021-10-14T18:18:25.827;0;0,5014648;0;0,5014648;0;0,5014648;0;-0,4997559;0;-0,4997559;0;-0,4997559;0;-0,4997559;0;-0,4997559;0;-0,4997559;0;-0,4997559;0;-0,4997559;0;-0,4997559;0;-0,4997559;0;-0,4997559;0;-0,4997559;0;-0,4997559;0;-0,4997559;0;-0,4997559;0;-0,4997559;0;-0,4997559;0;-0,4997559;0;-0,4997559;0;-0,4997559;0;-0,4997559;0;-0,4997559;
2021-10-14T18:18:25.928;0;-0,4997559;0;-0,4997559;0;-0,4997559;0;-0,4997559;0;-0,4997559;0;-0,4997559;0;-0,4997559;0;-0,4997559;0;-0,4997559;0;-0,4997559;0;-0,4997559;0;-0,4997559;0;-0,4997559;0;-0,4997559;0;-0,4997559;0;-0,4997559;0;-0,4997559;0;-0,4997559;0;-0,4997559;0;-0,4997559;0;-0,4997559;0;-0,4997559;0;-0,4997559;0;-0,4997559;0;-0,4997559;
2021-10-14T18:18:26.029;0;-0,4997559;0;-0,4997559;0;-0,4997559;0;-0,4997559;0;-0,4997559;0;-0,4997559;0;-0,4997559;0;-0,4997559;0;-0,4997559;0;-0,4997559;0;-0,4997559;0;-0,4997559;0;-0,4997559;0;-0,4997559;0;-0,4997559;0;-0,4997559;0;-0,4997559;0;-0,4997559;0;-0,4997559;0;-0,4997559;0;-0,4997559;0;-0,4997559;0;-0,4997559;0;-0,4997559;0;-0,4997559;
2021-10-14T18:18:26.129;0;-0,4997559;0;-0,4997559;0;-0,4997559;0;-0,4997559;0;-0,4997559;0;-0,4997559;0;-0,4997559;0;-0,4997559;0;-0,4997559;0;-0,4997559;0;-0,4997559;0;-0,4997559;0;-0,4997559;0;-0,4997559;0;-0,4997559;0;-0,4997559;0;-0,4997559;0;-0,4997559;0;-0,4997559;0;-0,4997559;0;-0,4997559;0;-0,4997559;0;0,5014648;0;0,5014648;0;0,5014648;
2021-10-14T18:18:26.231;0;0,5014648;0;0,5014648;0;0,5014648;0;0,5014648;0;0,5014648;0;0,5014648;0;0,5014648;0;0,5014648;0;0,5014648;0;0,5014648;0;0,5014648;0;0,5014648;0;0,5014648;0;0,5014648;0;0,5014648;0;0,5014648;0;0,5014648;0;0,5014648;0;0,5014648;0;0,5014648;0;0,5014648;0;0,5014648;0;0,5014648;0;0,5014648;0;0,5014648;
2021-10-14T18:18:26.332;0;0,5014648;0;0,5014648;0;0,5014648;0;0,5014648;0;0,5014648;0;0,5014648;0;0,5014648;0;0,5014648;0;0,5014648;0;0,5014648;0;0,5014648;0;0,5014648;0;0,5014648;0;0,5014648;0;0,5014648;0;0,5014648;0;0,5014648;0;0,5014648;0;0,5014648;0;0,5014648;0;0,5014648;0;0,5014648;0;0,5014648;0;0,5014648;0;0,5014648;
2021-10-14T18:18:26.432;0;0,5014648;0;0,5014648;0;0,5014648;0;0,5014648;0;0,5014648;0;0,5014648;0;0,5014648;0;0,5014648;0;0,5014648;0;0,5014648;0;0,5014648;0;0,5014648;0;0,5014648;0;0,5014648;0;0,5014648;0;0,5014648;0;0,5014648;0;0,5014648;0;0,5014648;0;0,5014648;0;0,5014648;0;0,5014648;0;0,5014648;0;0,5014648;0;0,5014648;
2021-10-14T18:18:26.533;0;0,5014648;0;0,5014648;0;0,5014648;0;0,5014648;0;0,5014648;0;0,5014648;0;0,5014648;0;0,5014648;0;0,5014648;0;0,5014648;0;0,5014648;0;-0,4997559;0;-0,4997559;0;-0,4997559;0;-0,4997559;0;-0,4997559;0;-0,4997559;0;-0,4997559;0;-0,4997559;0;-0,4997559;0;-0,4997559;0;-0,4997559;0;-0,4997559;0;-0,4997559;0;-0,02490234;
2021-10-14T18:18:26.633;0;0,5014648;0;0,5014648;0;0,5014648;0;0,5014648;0;0,5014648;0;0,5014648;0;0,5014648;0;0,5014648;0;0,5014648;0;0,5014648;0;0,5014648;0;0,5014648;0;0,5014648;0;0,5014648;0;0,5014648;0;0,5014648;0;0,5014648;0;0,5014648;0;0,5014648;0;0,5014648;0;0,5014648;0;0,5014648;0;0,5014648;0;0,5014648;0;0,5014648;
2021-10-14T18:18:26.734;0;0,5014648;0;0,5014648;0;0,5014648;0;0,5014648;0;0,5014648;0;0,5014648;0;0,5014648;0;0,5014648;0;0,5014648;0;0,5014648;0;0,5014648;0;0,5014648;0;-0,4265137;0;-0,4997559;0;0,5014648;0;0,5014648;0;0,5014648;0;0,5014648;0;0,5014648;0;0,5014648;0;0,5014648;0;0,2683105;0;-0,4997559;0;-0,4997559;0;-0,4997559;
2021-10-14T18:18:26.834;0;-0,4997559;0;-0,4997559;0;-0,4997559;0;-0,4997559;0;-0,4997559;0;-0,4997559;0;-0,4997559;0;-0,4997559;0;-0,4997559;0;-0,4997559;0;-0,4997559;0;-0,4997559;0;-0,4997559;0;-0,4997559;0;-0,4997559;0;-0,4997559;0;-0,4997559;0;-0,4997559;0;-0,4997559;0;-0,4997559;0;0,3166504;0;0,5014648;0;0,5014648;0;0,5014648;0;0,5014648;
2021-10-14T18:18:26.935;0;0,5014648;0;0,5014648;0;0,5014648;0;0,5014648;0;0,5014648;0;0,5014648;0;0,5014648;0;0,5014648;0;0,5014648;0;0,5014648;0;0,5014648;0;-0,4997559;0;-0,4997559;0;-0,4997559;0;-0,06494141;0;-0,07495117;0;0,5014648;0;0,5014648;0;0,5014648;0;0,5014648;0;0,5014648;0;0,5014648;0;0,5014648;0;0,5014648;0;0,5014648;
2021-10-14T18:18:27.036;0;0,5014648;0;0,5014648;0;0,5014648;0;0,5014648;0;0,5014648;0;0,5014648;0;0,5014648;0;-0,4997559;0;-0,4997559;0;-0,4997559;0;-0,4997559;0;-0,4997559;0;-0,4997559;0;-0,4997559;0;-0,4997559;0;-0,4997559;0;-0,4997559;0;-0,4997559;0;-0,4997559;0;-0,4997559;0;-0,4997559;0;-0,4997559;0;-0,4997559;0;-0,4997559;0;0,5014648;
2021-10-14T18:18:27.136;0;0,5014648;0;0,5014648;0;0,5014648;0;0,5014648;0;0,5014648;0;0,5014648;0;0,5014648;0;0,5014648;0;0,3149414;0;-0,4997559;0;-0,4997559;0;-0,4997559;0;-0,4997559;0;-0,4997559;0;-0,4997559;0;-0,4997559;0;-0,4997559;0;-0,4997559;0;-0,4997559;0;-0,4997559;0;-0,4997559;0;-0,4997559;0;-0,4997559;0;-0,4997559;0;-0,4997559;
2021-10-14T18:18:27.237;0;-0,4997559;0;-0,4997559;0;-0,4997559;0;-0,4997559;0;-0,4997559;0;-0,4997559;0;0,121582;0;0,5014648;0;0,5014648;0;0,5014648;0;0,5014648;0;0,5014648;0;0,5014648;0;0,5014648;0;0,5014648;0;0,5014648;0;0,5014648;0;0,5014648;0;0,5014648;0;0,5014648;0;0,5014648;0;0,5014648;0;0,5014648;0;0,5014648;0;0,5014648;
2021-10-14T18:18:27.337;0;0,5014648;0;0,5014648;0;0,5014648;0;0,5014648;0;0,5014648;0;0,5014648;0;0,5014648;0;0,4831543;0;-0,4997559;0;0,5014648;0;0,5014648;0;-0,4997559;0;-0,4997559;0;-0,4997559;0;-0,4997559;0;-0,4997559;0;-0,4997559;0;-0,4997559;0;-0,4997559;0;-0,4997559;0;0,5014648;0;0,5014648;0;0,5014648;0;0,5014648;0;0,5014648;
2021-10-14T18:18:27.438;0;0,5014648;0;0,5014648;0;0,5014648;0;0,5014648;0;0,5014648;0;0,5014648;0;0,5014648;0;0,5014648;0;0,5014648;0;0,5014648;0;0,5014648;0;0,5014648;0;0,5014648;0;0,5014648;0;0,5014648;0;0,5014648;0;0,5014648;0;0,5014648;0;0,5014648;0;0,5014648;0;0,5014648;0;0,5014648;0;0,5014648;0;0,5014648;0;0,5014648;
2021-10-14T18:18:27.539;0;0,5014648;0;0,5014648;0;0,5014648;0;0,5014648;0;0,5014648;0;0,5014648;0;0,5014648;0;0,5014648;0;0,5014648;0;0,2365723;0;-0,4997559;0;-0,4997559;0;-0,4997559;0;-0,4997559;0;-0,4997559;0;-0,4997559;0;-0,4997559;0;-0,4997559;0;-0,4997559;0;-0,4997559;0;-0,4997559;0;-0,4997559;0;-0,4997559;0;-0,4997559;0;-0,4997559;
2021-10-14T18:18:27.640;0;-0,4997559;0;-0,4997559;0;-0,4997559;0;-0,4997559;0;-0,4997559;0;-0,4997559;0;-0,4997559;0;-0,4997559;0;-0,4997559;0;-0,4997559;0;0,5014648;0;-0,4997559;0;-0,4997559;0;-0,4997559;0;-0,4997559;0;-0,4997559;0;-0,4997559;0;-0,4997559;0;-0,4997559;0;-0,4997559;0;-0,4997559;0;0,5014648;0;0,5014648;0;0,5014648;0;0,5014648;
2021-10-14T18:18:27.740;0;0,5014648;0;0,5014648;0;0,5014648;0;0,5014648;0;0,5014648;0;0,5014648;0;0,5014648;0;0,5014648;0;0,5014648;0;0,5014648;0;0,5014648;0;0,5014648;0;0,5014648;0;0,5014648;0;0,5014648;0;0,5014648;0;0,5014648;0;0,5014648;0;0,5014648;0;0,5014648;0;0,5014648;0;0,5014648;0;0,5014648;0;0,5014648;0;-0,1433105;
2021-10-14T18:18:27.841;0;-0,4997559;0;-0,4997559;0;-0,4997559;0;-0,4997559;0;-0,4997559;0;-0,4997559;0;-0,4997559;0;-0,4997559;0;-0,4997559;0;-0,4997559;0;-0,4997559;0;-0,4997559;0;-0,4997559;0;-0,4997559;0;-0,4997559;0;-0,4997559;0;-0,4997559;0;-0,4997559;0;-0,4997559;0;-0,4997559;0;-0,4997559;0;-0,4882813;0;-0,4997559;0;-0,4997559;0;-0,4997559;
2021-10-14T18:18:27.941;0;0,5014648;0;0,5014648;0;0,5014648;0;0,5014648;0;0,5014648;0;0,5014648;0;0,5014648;0;-0,05004883;0;-0,4147949;0;0,1716309;0;-0,4997559;0;-0,4997559;0;-0,4997559;0;0,5014648;0;0,5014648;0;0,5014648;0;0,5014648;0;0,5014648;0;0,5014648;0;0,5014648;0;0,5014648;0;0,5014648;0;0,5014648;0;0,5014648;0;0,5014648;
2021-10-14T18:18:28.042;0;0,5014648;0;0,5014648;0;-0,4997559;0;-0,4997559;0;-0,4997559;0;-0,4997559;0;-0,4997559;0;-0,4997559;0;-0,4997559;0;-0,4997559;0;-0,4997559;0;-0,4997559;0;-0,4997559;0;-0,4997559;0;-0,4997559;0;-0,4997559;0;-0,4997559;0;-0,4997559;0;-0,4997559;0;-0,4997559;0;-0,4997559;0;-0,4997559;0;-0,4997559;0;-0,4997559;0;-0,4997559;
2021-10-14T18:18:28.143;0;-0,4997559;0;-0,4997559;0;-0,4997559;0;-0,4997559;0;-0,4997559;0;-0,4997559;0;-0,4997559;0;-0,4997559;0;-0,4997559;0;-0,4997559;0;-0,4997559;0;-0,4997559;0;-0,4997559;0;-0,4997559;0;-0,4997559;0;-0,4997559;0;-0,4997559;0;-0,4997559;0;-0,4997559;0;-0,4997559;0;-0,4997559;0;-0,4997559;0;-0,4997559;0;-0,4997559;0;-0,4997559;
2021-10-14T18:18:28.243;0;-0,4997559;0;-0,4997559;0;-0,4997559;0;-0,4997559;0;-0,4997559;0;-0,4997559;0;-0,4997559;0;-0,4997559;0;-0,4997559;0;-0,4997559;0;-0,4997559;0;-0,4997559;0;-0,4997559;0;-0,4997559;0;-0,4997559;0;-0,4997559;0;-0,4997559;0;-0,4997559;0;-0,4997559;0;-0,4997559;0;-0,4997559;0;-0,4997559;0;-0,4997559;0;-0,4997559;0;-0,4997559;
2021-10-14T18:18:28.344;0;-0,4997559;0;-0,4997559;0;-0,4997559;0;-0,4997559;0;-0,3999023;0;0,5014648;0;0,5014648;0;0,5014648;0;-0,4997559;0;-0,4997559;0;-0,4997559;0;-0,4997559;0;-0,4997559;0;-0,4997559;0;0,5014648;0;0,5014648;0;0,5014648;0;0,5014648;0;0,5014648;0;0,5014648;0;0,5014648;0;0,5014648;0;0,5014648;0;0,5014648;0;0,5014648;
2021-10-14T18:18:28.444;0;0,08837891;0;-0,4997559;0;-0,4997559;0;-0,4997559;0;-0,4997559;0;-0,4997559;0;-0,4997559;0;-0,4997559;0;-0,4997559;0;-0,4997559;0;-0,4997559;0;-0,4997559;0;-0,4997559;0;-0,4997559;0;-0,4997559;0;-0,4997559;0;-0,4997559;0;-0,4997559;0;-0,4997559;0;-0,4997559;0;0,5014648;0;0,5014648;0;0,5014648;0;0,5014648;0;0,5014648;
2021-10-14T18:18:28.544;0;0,5014648;0;0,5014648;0;0,5014648;0;0,5014648;0;0,5014648;0;0,5014648;0;0,5014648;0;0,5014648;0;0,5014648;0;0,5014648;0;-0,4997559;0;-0,4997559;0;-0,3950195;0;0,1782227;0;-0,4997559;0;-0,4997559;0;-0,4997559;0;-0,4997559;0;-0,4997559;0;-0,4997559;0;-0,4997559;0;-0,4997559;0;0,5014648;0;0,5014648;0;0,5014648;
2021-10-14T18:18:28.645;0;0,5014648;0;0,5014648;0;0,5014648;0;0,5014648;0;0,5014648;0;0,5014648;0;0,5014648;0;0,5014648;0;0,5014648;0;0,5014648;0;0,5014648;0;0,5014648;0;0,5014648;0;0,5014648;0;0,5014648;0;0,5014648;0;0,5014648;0;0,5014648;0;0,5014648;0;0,5014648;0;0,5014648;0;0,5014648;0;0,5014648;0;0,5014648;0;0,5014648;
2021-10-14T18:18:28.746;0;0,5014648;0;0,5014648;0;0,5014648;0;0,5014648;0;0,5014648;0;0,5014648;0;0,5014648;0;0,5014648;0;0,5014648;0;0,5014648;0;0,5014648;0;0,5014648;0;-0,4997559;0;0,5014648;0;0,5014648;0;0,5014648;0;0,5014648;0;0,5014648;0;0,5014648;0;0,5014648;0;0,5014648;0;0,5014648;0;0,5014648;0;0,5014648;0;0,5014648;
2021-10-14T18:18:28.847;0;0,5014648;0;0,5014648;0;0,5014648;0;0,5014648;0;0,5014648;0;0,5014648;0;0,5014648;0;0,5014648;0;0,5014648;0;0,5014648;0;0,5014648;0;0,5014648;0;0,5014648;0;0,5014648;0;0,5014648;0;0,5014648;0;0,5014648;0;0,5014648;0;0,5014648;0;0,5014648;0;0,5014648;0;0,5014648;0;0,5014648;0;0,5014648;0;0,5014648;
2021-10-14T18:18:28.947;0;0,5014648;0;0,5014648;0;0,5014648;0;0,5014648;0;0,5014648;0;0,5014648;0;0,5014648;0;0,5014648;0;0,5014648;0;0,5014648;0;0,5014648;0;0,5014648;0;0,5014648;0;0,5014648;0;0,5014648;0;0,5014648;0;0,5014648;0;0,4914551;0;-0,4997559;0;-0,4997559;0;-0,4997559;0;-0,4997559;0;-0,4997559;0;-0,4997559;0;-0,4997559;
2021-10-14T18:18:29.047;0;-0,4997559;0;-0,4997559;0;-0,4997559;0;-0,4997559;0;-0,4997559;0;-0,4997559;0;-0,4997559;0;-0,4997559;0;-0,4997559;0;-0,4997559;0;-0,4997559;0;-0,4997559;0;-0,4997559;0;-0,4997559;0;-0,4997559;0;-0,4997559;0;-0,4997559;0;-0,4997559;0;-0,4997559;0;-0,4997559;0;0,5014648;0;0,5014648;0;0,3850098;0;-0,4997559;0;-0,4997559;
2021-10-14T18:18:29.148;0;-0,4997559;0;-0,4997559;0;-0,4997559;0;-0,4997559;0;-0,4997559;0;-0,4997559;0;-0,4997559;0;-0,4782715;0;0,5014648;0;0,5014648;0;0,5014648;0;0,5014648;0;0,5014648;0;0,5014648;0;0,5014648;0;0,5014648;0;0,5014648;0;0,5014648;0;0,5014648;0;0,5014648;0;0,5014648;0;0,5014648;0;0,5014648;0;0,5014648;0;0,5014648;
2021-10-14T18:18:29.249;0;0,5014648;0;0,5014648;0;0,5014648;0;0,5014648;0;0,5014648;0;0,5014648;0;0,5014648;0;0,5014648;0;-0,4997559;0;-0,4997559;0;-0,4997559;0;-0,4997559;0;-0,4997559;0;-0,4997559;0;-0,4997559;0;-0,4997559;0;-0,4997559;0;-0,4997559;0;0,5014648;0;0,5014648;0;0,5014648;0;0,5014648;0;0,5014648;0;0,5014648;0;0,5014648;
2021-10-14T18:18:29.350;0;0,5014648;0;0,5014648;0;0,5014648;0;0,5014648;0;0,5014648;0;0,5014648;0;0,5014648;0;0,5014648;0;0,5014648;0;0,5014648;0;0,5014648;0;0,5014648;0;0,5014648;0;0,5014648;0;0,5014648;0;0,5014648;0;0,5014648;0;0,5014648;0;0,5014648;0;0,5014648;0;0,5014648;0;0,5014648;0;0,5014648;0;0,5014648;0;0,5014648;
2021-10-14T18:18:29.450;0;0,5014648;0;0,5014648;0;0,5014648;0;0,5014648;0;0,5014648;0;0,5014648;0;0,5014648;0;0,5014648;0;0,5014648;0;0,5014648;0;0,5014648;0;0,5014648;0;0,5014648;0;0,5014648;0;0,5014648;0;0,5014648;0;0,5014648;0;0,5014648;0;0,5014648;0;0,5014648;0;0,5014648;0;0,5014648;0;0,5014648;0;0,5014648;0;0,5014648;
2021-10-14T18:18:29.551;0;0,5014648;0;0,5014648;0;0,5014648;0;0,5014648;0;0,5014648;0;0,5014648;0;0,5014648;0;0,5014648;0;0,5014648;0;0,5014648;0;0,5014648;0;0,5014648;0;0,5014648;0;0,5014648;0;0,5014648;0;0,5014648;0;0,5014648;0;0,5014648;0;0,5014648;0;0,5014648;0;0,5014648;0;0,5014648;0;0,5014648;0;0,5014648;0;0,5014648;
2021-10-14T18:18:29.651;0;0,5014648;0;0,5014648;0;0,5014648;0;0,5014648;0;0,5014648;0;0,5014648;0;0,5014648;0;0,5014648;0;0,5014648;0;0,5014648;0;0,5014648;0;0,5014648;0;0,5014648;0;0,5014648;0;0,5014648;0;0,5014648;0;0,5014648;0;0,5014648;0;0,5014648;0;0,5014648;0;0,5014648;0;0,5014648;0;0,5014648;0;0,5014648;0;0,5014648;
2021-10-14T18:18:29.752;0;0,5014648;0;0,5014648;0;0,5014648;0;0,5014648;0;0,5014648;0;0,5014648;0;0,5014648;0;0,5014648;0;0,5014648;0;0,5014648;0;0,5014648;0;0,5014648;0;0,5014648;0;0,5014648;0;0,5014648;0;0,5014648;0;0,5014648;0;0,5014648;0;0,5014648;0;0,5014648;0;0,5014648;0;0,5014648;0;0,5014648;0;0,5014648;0;0,5014648;
2021-10-14T18:18:29.853;0;0,5014648;0;0,5014648;0;0,5014648;0;0,5014648;0;0,5014648;0;0,5014648;0;0,5014648;0;0,5014648;0;0,5014648;0;0,5014648;0;0,5014648;0;0,5014648;0;0,5014648;0;0,5014648;0;0,5014648;0;0,5014648;0;0,5014648;0;0,5014648;0;0,5014648;0;0,5014648;0;0,5014648;0;0,5014648;0;0,5014648;0;0,5014648;0;0,5014648;
2021-10-14T18:18:29.954;0;0,5014648;0;0,5014648;0;0,5014648;0;0,5014648;0;0,5014648;0;0,5014648;0;0,5014648;0;0,5014648;0;0,5014648;0;0,5014648;0;0,5014648;0;0,5014648;0;0,5014648;0;0,5014648;0;0,5014648;0;0,5014648;0;0,5014648;0;0,5014648;0;0,5014648;0;0,5014648;0;0,5014648;0;0,5014648;0;0,5014648;0;0,5014648;0;0,5014648;
2021-10-14T18:18:30.054;0;0,5014648;0;0,5014648;0;0,5014648;0;0,5014648;0;0,5014648;0;0,5014648;0;0,5014648;0;0,5014648;0;0,5014648;0;0,5014648;0;0,5014648;0;0,5014648;0;0,5014648;0;0,5014648;0;0,5014648;0;0,5014648;0;0,5014648;0;0,5014648;0;0,5014648;0;0,5014648;0;0,5014648;0;0,5014648;0;0,5014648;0;0,5014648;0;0,5014648;
2021-10-14T18:18:30.155;0;0,5014648;0;0,5014648;0;0,5014648;0;0,5014648;0;0,5014648;0;0,5014648;0;0,5014648;0;0,5014648;0;0,5014648;0;0,5014648;0;0,5014648;0;0,5014648;0;0,5014648;0;0,5014648;0;0,5014648;0;0,5014648;0;0,5014648;0;0,5014648;0;0,5014648;0;0,5014648;0;0,5014648;0;0,5014648;0;0,5014648;0;0,5014648;0;0,5014648;
2021-10-14T18:18:30.255;0;0,5014648;0;0,5014648;0;0,5014648;0;0,5014648;0;0,5014648;0;0,5014648;0;0,5014648;0;0,4616699;0;-0,4997559;0;-0,4997559;0;-0,4997559;0;-0,4997559;0;-0,4997559;0;-0,4997559;0;0,5014648;0;0,5014648;0;0,5014648;0;0,5014648;0;0,5014648;0;0,5014648;0;0,5014648;0;0,5014648;0;0,5014648;0;0,5014648;0;0,5014648;
2021-10-14T18:18:30.356;0;0,5014648;0;0,5014648;0;0,5014648;0;0,5014648;0;-0,4348145;0;-0,4997559;0;-0,4997559;0;-0,4997559;0;-0,4997559;0;-0,4997559;0;-0,4997559;0;-0,4997559;0;-0,4997559;0;-0,4997559;0;-0,4997559;0;-0,4997559;0;-0,4997559;0;-0,4997559;0;-0,4997559;0;-0,4997559;0;-0,4997559;0;-0,4997559;0;-0,4997559;0;-0,4997559;0;-0,4997559;
2021-10-14T18:18:30.457;0;-0,4997559;0;-0,4997559;0;-0,4997559;0;-0,4997559;0;-0,4997559;0;-0,2714844;0;0,5014648;0;-0,4997559;0;-0,4997559;0;-0,4348145;0;0,5014648;0;0,5014648;0;0,5014648;0;0,5014648;0;0,5014648;0;0,5014648;0;0,5014648;0;0,5014648;0;0,5014648;0;0,5014648;0;0,5014648;0;0,5014648;0;0,5014648;0;0,5014648;0;0,5014648;
2021-10-14T18:18:30.558;0;0,5014648;0;-0,4997559;0;-0,4997559;0;-0,4997559;0;-0,4997559;0;-0,4997559;0;-0,4997559;0;-0,4997559;0;-0,4997559;0;-0,4997559;0;-0,4997559;0;-0,4997559;0;-0,4997559;0;-0,4997559;0;-0,4997559;0;-0,4997559;0;-0,4997559;0;-0,4997559;0;-0,4997559;0;-0,4997559;0;-0,4997559;0;-0,4997559;0;-0,4997559;0;-0,4997559;0;-0,4997559;
2021-10-14T18:18:30.658;0;0,5014648;0;0,5014648;0;0,5014648;0;0,5014648;0;0,5014648;0;0,5014648;0;0,5014648;0;0,5014648;0;0,5014648;0;0,5014648;0;0,5014648;0;0,5014648;0;0,5014648;0;0,5014648;0;0,5014648;0;0,5014648;0;0,5014648;0;0,5014648;0;0,5014648;0;0,5014648;0;-0,4997559;0;-0,4997559;0;-0,4997559;0;-0,4997559;0;0,05664063;
2021-10-14T18:18:30.759;0;0,5014648;0;0,5014648;0;0,5014648;0;0,5014648;0;0,5014648;0;0,5014648;0;-0,4997559;0;-0,4997559;0;-0,4997559;0;-0,4997559;0;-0,4997559;0;0,5014648;0;0,5014648;0;0,5014648;0;0,5014648;0;0,5014648;0;0,5014648;0;0,5014648;0;0,5014648;0;0,5014648;0;0,5014648;0;0,5014648;0;0,5014648;0;0,5014648;0;0,5014648;
2021-10-14T18:18:30.860;0;0,5014648;0;0,5014648;0;0,5014648;0;0,5014648;0;0,5014648;0;0,5014648;0;0,5014648;0;0,5014648;0;0,5014648;0;0,5014648;0;0,5014648;0;0,5014648;0;0,5014648;0;0,5014648;0;0,5014648;0;0,5014648;0;0,5014648;0;0,5014648;0;0,5014648;0;0,5014648;0;0,5014648;0;0,5014648;0;0,5014648;0;-0,1899414;0;-0,4997559;
2021-10-14T18:18:30.962;0;-0,4997559;0;-0,4997559;0;-0,4997559;0;-0,4997559;0;-0,4997559;0;-0,4997559;0;-0,4997559;0;-0,4997559;0;-0,4997559;0;-0,4997559;0;-0,4997559;0;-0,4997559;0;-0,4997559;0;-0,4997559;0;-0,4997559;0;-0,4997559;0;-0,4997559;0;-0,4997559;0;-0,4997559;0;-0,4997559;0;-0,4997559;0;-0,4997559;0;-0,4997559;0;-0,4997559;0;-0,4997559;
2021-10-14T18:18:31.062;0;-0,4997559;0;-0,4997559;0;-0,4997559;0;-0,4997559;0;-0,4997559;0;-0,4997559;0;-0,4997559;0;-0,4997559;0;-0,4997559;0;-0,4997559;0;-0,4997559;0;-0,4997559;0;0,5014648;0;0,5014648;0;0,5014648;0;0,5014648;0;0,5014648;0;-0,4997559;0;-0,4997559;0;-0,4997559;0;-0,4997559;0;-0,4997559;0;-0,4997559;0;-0,4997559;0;-0,4997559;
2021-10-14T18:18:31.163;0;-0,4997559;0;-0,4997559;0;-0,4997559;0;-0,4997559;0;-0,4997559;0;-0,4997559;0;-0,4997559;0;-0,4997559;0;-0,4997559;0;-0,4997559;0;-0,4997559;0;-0,4997559;0;-0,4997559;0;-0,4997559;0;-0,4997559;0;-0,4997559;0;-0,4997559;0;-0,4997559;0;-0,4997559;0;-0,4997559;0;-0,4997559;0;-0,4997559;0;-0,4997559;0;-0,4997559;0;-0,4997559;
2021-10-14T18:18:31.264;0;-0,4997559;0;-0,4997559;0;-0,4997559;0;-0,4997559;0;-0,4997559;0;-0,4997559;0;-0,4997559;0;-0,4997559;0;-0,4997559;0;-0,4997559;0;-0,4997559;0;-0,4997559;0;-0,4997559;0;-0,4997559;0;-0,4997559;0;-0,4997559;0;-0,4997559;0;-0,4997559;0;-0,4997559;0;-0,4997559;0;-0,4997559;0;-0,4997559;0;-0,4997559;0;-0,4997559;0;-0,4997559;
2021-10-14T18:18:31.364;0;-0,4997559;0;-0,4997559;0;-0,4997559;0;-0,4997559;0;-0,4997559;0;-0,4997559;0;-0,4997559;0;-0,4997559;0;-0,4997559;0;-0,4997559;0;-0,4997559;0;-0,4997559;0;-0,4997559;0;-0,4997559;0;-0,4997559;0;-0,4997559;0;-0,4997559;0;-0,4997559;0;-0,4997559;0;-0,4997559;0;-0,4997559;0;-0,4997559;0;-0,4997559;0;-0,4997559;0;-0,4997559;
2021-10-14T18:18:31.465;0;-0,4997559;0;-0,4997559;0;-0,4997559;0;-0,4997559;0;-0,4997559;0;-0,4997559;0;-0,4997559;0;-0,4997559;0;-0,4997559;0;-0,4997559;0;-0,4997559;0;-0,4997559;0;-0,4997559;0;-0,4997559;0;-0,4997559;0;-0,4997559;0;-0,4997559;0;-0,4997559;0;-0,4997559;0;-0,4997559;0;-0,4997559;0;-0,4997559;0;-0,4997559;0;-0,4997559;0;-0,4997559;
2021-10-14T18:18:31.566;0;-0,4997559;0;-0,4997559;0;-0,4997559;0;-0,4997559;0;-0,4997559;0;-0,4997559;0;-0,4997559;0;-0,4997559;0;-0,4997559;0;-0,4997559;0;-0,4997559;0;-0,4997559;0;-0,4997559;0;-0,4997559;0;-0,4997559;0;-0,4997559;0;-0,4997559;0;-0,4997559;0;-0,4997559;0;-0,4997559;0;-0,4997559;0;-0,4997559;0;-0,4997559;0;-0,4997559;0;-0,4997559;
2021-10-14T18:18:31.666;0;-0,4997559;0;-0,4997559;0;-0,4997559;0;-0,4997559;0;-0,4997559;0;-0,4997559;0;-0,4997559;0;-0,4997559;0;-0,4997559;0;-0,4997559;0;-0,4997559;0;-0,4997559;0;-0,4997559;0;-0,4997559;0;-0,4997559;0;-0,4997559;0;-0,4997559;0;-0,4997559;0;-0,4997559;0;-0,4997559;0;-0,4997559;0;-0,4997559;0;-0,4997559;0;-0,4997559;0;-0,4997559;
2021-10-14T18:18:31.767;0;-0,4997559;0;-0,4997559;0;-0,4997559;0;-0,4997559;0;-0,4997559;0;-0,4997559;0;-0,4997559;0;-0,4997559;0;-0,4997559;0;-0,4997559;0;-0,4997559;0;-0,4997559;0;-0,4997559;0;-0,4997559;0;-0,4997559;0;-0,4997559;0;-0,4997559;0;-0,4997559;0;-0,4997559;0;-0,4997559;0;-0,4997559;0;-0,4997559;0;-0,4997559;0;-0,4997559;0;-0,4997559;
2021-10-14T18:18:31.867;0;-0,4997559;0;-0,4997559;0;-0,4997559;0;-0,4997559;0;-0,4997559;0;-0,4997559;0;-0,4997559;0;-0,4997559;0;-0,4997559;0;-0,4997559;0;-0,4997559;0;-0,4997559;0;-0,4997559;0;-0,4997559;0;-0,4997559;0;-0,4997559;0;-0,4997559;0;-0,4997559;0;-0,4997559;0;-0,4997559;0;-0,4997559;0;-0,4997559;0;-0,4997559;0;-0,4997559;0;-0,4997559;
2021-10-14T18:18:31.968;0;-0,4997559;0;-0,4997559;0;-0,4997559;0;-0,4997559;0;-0,4997559;0;-0,4997559;0;-0,4997559;0;-0,4997559;0;-0,4997559;0;-0,4997559;0;-0,4997559;0;-0,4997559;0;-0,4997559;0;-0,4997559;0;-0,4997559;0;-0,4997559;0;-0,4997559;0;-0,4997559;0;-0,4997559;0;-0,4997559;0;-0,4997559;0;-0,4997559;0;-0,4997559;0;-0,4997559;0;-0,4997559;
2021-10-14T18:18:32.068;0;-0,4997559;0;-0,4997559;0;-0,4997559;0;-0,4997559;0;-0,4997559;0;-0,4997559;0;-0,4997559;0;-0,4997559;0;-0,4997559;0;-0,4997559;0;-0,4997559;0;-0,4997559;0;-0,4997559;0;-0,4997559;0;-0,4997559;0;-0,4997559;0;-0,4997559;0;-0,4997559;0;-0,4997559;0;-0,4997559;0;-0,4997559;0;-0,4997559;0;-0,4997559;0;-0,4997559;0;-0,4997559;
2021-10-14T18:18:32.169;0;-0,4997559;0;-0,4997559;0;-0,4997559;0;-0,4997559;0;-0,4997559;0;-0,4997559;0;-0,4997559;0;-0,4997559;0;-0,4997559;0;-0,4997559;0;-0,4997559;0;-0,4997559;0;-0,4997559;0;-0,4997559;0;-0,4997559;0;-0,4997559;0;-0,4997559;0;-0,4997559;0;-0,4997559;0;-0,4997559;0;-0,4997559;0;-0,4997559;0;-0,4997559;0;-0,4997559;0;-0,4997559;
2021-10-14T18:18:32.270;0;-0,4997559;0;-0,4997559;0;-0,4997559;0;-0,4997559;0;-0,4997559;0;-0,4997559;0;-0,4997559;0;-0,4997559;0;-0,4997559;0;-0,4997559;0;-0,4997559;0;-0,4997559;0;-0,4997559;0;-0,4997559;0;-0,4997559;0;-0,4997559;0;-0,4997559;0;-0,4997559;0;-0,4997559;0;-0,4997559;0;-0,4997559;0;-0,4997559;0;-0,4997559;0;-0,4997559;0;-0,4997559;
2021-10-14T18:18:32.370;0;-0,4997559;0;-0,4997559;0;-0,4997559;0;-0,4997559;0;-0,4997559;0;-0,4997559;0;-0,4997559;0;-0,4997559;0;-0,4997559;0;-0,4997559;0;-0,4997559;0;-0,4997559;0;-0,4997559;0;-0,4997559;0;-0,4997559;0;-0,4997559;0;-0,4997559;0;-0,4997559;0;-0,4997559;0;-0,4997559;0;-0,4997559;0;-0,4997559;0;-0,4997559;0;-0,4997559;0;-0,4997559;
2021-10-14T18:18:32.471;0;-0,4997559;0;-0,4997559;0;-0,4997559;0;-0,4997559;0;-0,4997559;0;-0,4997559;0;-0,4997559;0;-0,4997559;0;-0,4997559;0;-0,4997559;0;-0,4997559;0;-0,4997559;0;-0,4997559;0;-0,4997559;0;-0,4997559;0;-0,4997559;0;-0,4997559;0;-0,4997559;0;-0,4997559;0;-0,4997559;0;-0,4997559;0;-0,4997559;0;-0,4997559;0;-0,4997559;0;-0,4997559;
2021-10-14T18:18:32.572;0;-0,4997559;0;-0,4997559;0;-0,4997559;0;-0,4997559;0;-0,4997559;0;-0,4997559;0;-0,4997559;0;-0,4997559;0;-0,4997559;0;-0,4997559;0;-0,4997559;0;-0,4997559;0;-0,4997559;0;-0,4997559;0;-0,4997559;0;-0,4997559;0;-0,4997559;0;-0,4997559;0;-0,4997559;0;-0,4997559;0;-0,4997559;0;-0,4997559;0;-0,4997559;0;-0,4997559;0;-0,4997559;
2021-10-14T18:18:32.672;0;-0,4997559;0;-0,4997559;0;-0,4997559;0;-0,4997559;0;-0,4997559;0;-0,4997559;0;-0,4997559;0;-0,4997559;0;-0,4997559;0;-0,4997559;0;-0,4997559;0;-0,4997559;0;-0,4997559;0;-0,4997559;0;-0,4997559;0;-0,4997559;0;-0,4997559;0;-0,4997559;0;-0,4997559;0;-0,4997559;0;-0,4997559;0;-0,4997559;0;-0,4997559;0;-0,4997559;0;-0,4997559;
2021-10-14T18:18:32.773;0;-0,4997559;0;-0,4997559;0;-0,4997559;0;-0,4997559;0;-0,4997559;0;-0,4997559;0;-0,4997559;0;-0,4997559;0;-0,4997559;0;-0,4997559;0;-0,4997559;0;0,5014648;0;0,5014648;0;0,5014648;0;0,5014648;0;0,5014648;0;0,5014648;0;0,5014648;0;0,5014648;0;-0,4997559;0;-0,4648438;0;-0,4997559;0;-0,4997559;0;-0,4997559;0;-0,4997559;
2021-10-14T18:18:32.874;0;-0,4997559;0;-0,4997559;0;-0,3249512;0;-0,01489258;0;0,5014648;0;0,5014648;0;0,5014648;0;0,5014648;0;0,5014648;0;0,5014648;0;0,5014648;0;0,5014648;0;0,5014648;0;0,5014648;0;0,5014648;0;0,5014648;0;0,5014648;0;-0,4997559;0;-0,4997559;0;-0,4997559;0;-0,4997559;0;-0,4997559;0;-0,4997559;0;-0,4997559;0;-0,4997559;
2021-10-14T18:18:32.975;0;-0,4997559;0;-0,4997559;0;-0,4997559;0;-0,4997559;0;-0,4997559;0;-0,4997559;0;-0,4997559;0;-0,4997559;0;-0,4997559;0;0,5014648;0;0,5014648;0;0,5014648;0;0,5014648;0;0,5014648;0;0,5014648;0;0,5014648;0;0,5014648;0;0,5014648;0;0,5014648;0;0,5014648;0;0,5014648;0;0,5014648;0;0,5014648;0;0,5014648;0;0,5014648;
2021-10-14T18:18:33.075;0;0,5014648;0;0,5014648;0;0,5014648;0;0,5014648;0;0,5014648;0;0,5014648;0;0,5014648;0;0,5014648;0;0,5014648;0;0,5014648;0;0,5014648;0;0,5014648;0;0,5014648;0;0,5014648;0;0,5014648;0;0,5014648;0;0,5014648;0;0,5014648;0;0,5014648;0;0,5014648;0;0,5014648;0;0,5014648;0;0,5014648;0;0,5014648;0;0,5014648;
2021-10-14T18:18:33.176;0;0,5014648;0;0,5014648;0;0,5014648;0;0,5014648;0;0,5014648;0;0,5014648;0;0,5014648;0;0,5014648;0;0,5014648;0;0,5014648;0;0,5014648;0;0,5014648;0;-0,4997559;0;-0,4997559;0;-0,4997559;0;-0,4997559;0;-0,4997559;0;-0,4997559;0;-0,4997559;0;-0,4997559;0;-0,4997559;0;-0,4997559;0;-0,4997559;0;-0,4997559;0;-0,4997559;
2021-10-14T18:18:33.276;0;-0,4997559;0;-0,4997559;0;-0,4997559;0;-0,4997559;0;-0,4997559;0;-0,4997559;0;-0,4997559;0;-0,4997559;0;-0,4997559;0;-0,4997559;0;-0,4997559;0;-0,4997559;0;-0,4997559;0;-0,4997559;0;-0,4997559;0;-0,4997559;0;-0,4997559;0;-0,4997559;0;-0,4997559;0;-0,4997559;0;-0,4997559;0;-0,4997559;0;-0,4997559;0;-0,4997559;0;-0,4997559;
2021-10-14T18:18:33.376;0;-0,4997559;0;-0,4997559;0;-0,4997559;0;-0,4997559;0;-0,4997559;0;-0,4997559;0;-0,4997559;0;-0,4997559;0;-0,4997559;0;-0,4997559;0;-0,4997559;0;-0,4997559;0;-0,4997559;0;-0,4997559;0;-0,4997559;0;-0,4997559;0;-0,4997559;0;-0,4997559;0;-0,4997559;0;-0,4997559;0;-0,4997559;0;-0,4997559;0;-0,4997559;0;-0,4997559;0;-0,4997559;
2021-10-14T18:18:33.477;0;-0,4997559;0;-0,4997559;0;-0,4997559;0;-0,4997559;0;-0,4997559;0;-0,4997559;0;-0,4997559;0;-0,4997559;0;-0,4997559;0;-0,4997559;0;-0,4997559;0;-0,4997559;0;-0,4997559;0;-0,4997559;0;-0,4997559;0;-0,4997559;0;-0,4997559;0;-0,4997559;0;-0,4997559;0;-0,4997559;0;-0,4997559;0;-0,4997559;0;-0,4997559;0;-0,4997559;0;-0,4997559;
2021-10-14T18:18:33.577;0;-0,4997559;0;-0,4997559;0;-0,4997559;0;-0,4997559;0;-0,4997559;0;-0,4997559;0;-0,4997559;0;-0,4997559;0;-0,4997559;0;-0,4997559;0;-0,4997559;0;-0,4997559;0;-0,4997559;0;-0,4997559;0;-0,4997559;0;-0,4997559;0;-0,4997559;0;-0,4997559;0;-0,4997559;0;-0,4997559;0;-0,4997559;0;-0,4997559;0;-0,4997559;0;-0,4997559;0;-0,4997559;
2021-10-14T18:18:33.678;0;-0,4997559;0;-0,4997559;0;-0,4997559;0;-0,4997559;0;-0,4997559;0;-0,4997559;0;-0,4997559;0;-0,4997559;0;-0,4997559;0;-0,4997559;0;-0,4997559;0;-0,4997559;0;-0,4997559;0;-0,4997559;0;-0,4997559;0;-0,4997559;0;-0,4997559;0;-0,4997559;0;-0,4997559;0;-0,4997559;0;-0,4997559;0;-0,4997559;0;-0,4997559;0;-0,4997559;0;-0,4997559;
2021-10-14T18:18:33.779;0;-0,4997559;0;-0,4997559;0;-0,4997559;0;-0,4997559;0;-0,4997559;0;-0,4997559;0;-0,4997559;0;-0,4997559;0;-0,4997559;0;-0,4997559;0;-0,4997559;0;-0,4997559;0;-0,4997559;0;-0,4997559;0;-0,4997559;0;0,5014648;0;0,5014648;0;0,5014648;0;0,5014648;0;0,5014648;0;0,5014648;0;0,5014648;0;0,5014648;0;0,5014648;0;0,5014648;
2021-10-14T18:18:33.879;0;0,5014648;0;0,5014648;0;0,5014648;0;0,5014648;0;-0,4997559;0;-0,4997559;0;-0,4997559;0;-0,4997559;0;-0,1499023;0;0,5014648;0;0,5014648;0;0,5014648;0;0,5014648;0;0,5014648;0;0,5014648;0;0,5014648;0;0,5014648;0;0,5014648;0;0,5014648;0;0,5014648;0;0,5014648;0;0,5014648;0;0,5014648;0;0,5014648;0;0,5014648;
2021-10-14T18:18:33.980;0;0,5014648;0;0,5014648;0;0,5014648;0;0,5014648;0;0,5014648;0;0,5014648;0;0,5014648;0;0,5014648;0;0,5014648;0;0,5014648;0;0,5014648;0;0,5014648;0;0,5014648;0;0,5014648;0;0,5014648;0;0,5014648;0;0,5014648;0;0,5014648;0;0,5014648;0;0,5014648;0;0,5014648;0;0,5014648;0;0,5014648;0;0,5014648;0;0,5014648;
2021-10-14T18:18:34.080;0;0,5014648;0;0,5014648;0;0,5014648;0;0,5014648;0;0,5014648;0;0,5014648;0;0,5014648;0;0,5014648;0;0,5014648;0;0,5014648;0;0,5014648;0;0,5014648;0;0,5014648;0;0,5014648;0;0,5014648;0;0,5014648;0;0,5014648;0;0,5014648;0;0,5014648;0;0,5014648;0;0,5014648;0;0,5014648;0;0,5014648;0;0,5014648;0;0,5014648;
2021-10-14T18:18:34.181;0;0,5014648;0;0,5014648;0;0,5014648;0;0,5014648;0;0,5014648;0;0,5014648;0;0,5014648;0;0,5014648;0;0,5014648;0;0,5014648;0;0,5014648;0;0,5014648;0;0,5014648;0;0,5014648;0;0,5014648;0;0,5014648;0;0,5014648;0;0,5014648;0;0,5014648;0;0,5014648;0;0,5014648;0;0,5014648;0;0,5014648;0;0,5014648;0;0,5014648;
2021-10-14T18:18:34.282;0;0,5014648;0;0,5014648;0;0,5014648;0;0,5014648;0;0,5014648;0;0,5014648;0;0,5014648;0;0,5014648;0;0,5014648;0;0,5014648;0;0,5014648;0;0,5014648;0;0,5014648;0;0,5014648;0;0,5014648;0;0,5014648;0;0,5014648;0;0,5014648;0;0,5014648;0;0,5014648;0;0,5014648;0;0,5014648;0;0,5014648;0;0,5014648;0;0,5014648;
2021-10-14T18:18:34.383;0;0,5014648;0;0,5014648;0;0,5014648;0;0,5014648;0;0,5014648;0;0,5014648;0;0,5014648;0;0,5014648;0;0,5014648;0;0,5014648;0;0,5014648;0;0,5014648;0;0,5014648;0;0,5014648;0;0,5014648;0;0,5014648;0;0,5014648;0;0,5014648;0;0,5014648;0;0,5014648;0;0,5014648;0;0,5014648;0;0,5014648;0;0,5014648;0;0,5014648;
2021-10-14T18:18:34.484;0;0,5014648;0;0,5014648;0;0,5014648;0;0,5014648;0;0,5014648;0;0,5014648;0;0,5014648;0;0,5014648;0;0,5014648;0;0,5014648;0;0,5014648;0;0,5014648;0;0,5014648;0;0,5014648;0;0,5014648;0;0,5014648;0;0,5014648;0;0,5014648;0;0,5014648;0;0,5014648;0;0,5014648;0;0,5014648;0;0,5014648;0;0,5014648;0;0,5014648;
2021-10-14T18:18:34.584;0;0,5014648;0;0,5014648;0;0,5014648;0;0,5014648;0;0,5014648;0;0,5014648;0;0,5014648;0;0,5014648;0;0,5014648;0;0,5014648;0;0,5014648;0;0,5014648;0;0,5014648;0;0,5014648;0;0,5014648;0;0,5014648;0;0,5014648;0;0,5014648;0;0,5014648;0;0,5014648;0;0,5014648;0;0,5014648;0;0,5014648;0;0,5014648;0;0,5014648;
2021-10-14T18:18:34.685;0;0,5014648;0;0,5014648;0;0,5014648;0;0,5014648;0;0,5014648;0;0,5014648;0;0,5014648;0;0,5014648;0;0,5014648;0;0,5014648;0;0,5014648;0;0,5014648;0;0,5014648;0;0,5014648;0;0,5014648;0;0,5014648;0;0,5014648;0;-0,4997559;0;-0,4997559;0;-0,4997559;0;-0,4997559;0;-0,4997559;0;-0,4997559;0;-0,4997559;0;-0,4997559;
2021-10-14T18:18:34.787;0;-0,4997559;0;-0,4997559;0;-0,4997559;0;-0,4997559;0;-0,4997559;0;-0,4997559;0;-0,4997559;0;-0,4997559;0;-0,4997559;0;-0,4997559;0;-0,4997559;0;-0,4997559;0;-0,4997559;0;-0,4997559;0;-0,4997559;0;-0,4997559;0;-0,4997559;0;-0,4997559;0;-0,4997559;0;-0,4997559;0;-0,4997559;0;-0,4997559;0;-0,4997559;0;-0,4997559;0;-0,4997559;
2021-10-14T18:18:34.887;0;-0,4997559;0;-0,4997559;0;-0,4997559;0;-0,4997559;0;-0,4997559;0;-0,4997559;0;-0,4997559;0;-0,4997559;0;-0,4997559;0;-0,4997559;0;-0,4997559;0;-0,4997559;0;-0,4997559;0;-0,4997559;0;-0,4997559;0;-0,4997559;0;-0,4997559;0;-0,4997559;0;-0,4997559;0;-0,4997559;0;-0,4997559;0;-0,4997559;0;-0,4997559;0;-0,4997559;0;-0,4997559;
2021-10-14T18:18:34.988;0;-0,4997559;0;-0,4997559;0;-0,4997559;0;-0,4997559;0;-0,4997559;0;-0,4997559;0;-0,4997559;0;-0,4997559;0;-0,4997559;0;-0,4997559;0;-0,4997559;0;-0,4997559;0;-0,4997559;0;-0,4997559;0;-0,4997559;0;-0,4997559;0;-0,4997559;0;-0,4997559;0;-0,4997559;0;-0,4997559;0;-0,4997559;0;-0,4997559;0;-0,4997559;0;-0,4997559;0;-0,4997559;
2021-10-14T18:18:35.089;0;-0,4997559;0;-0,4997559;0;-0,4997559;0;-0,4997559;0;-0,4997559;0;-0,4997559;0;-0,4997559;0;-0,4997559;0;-0,4997559;0;-0,4997559;0;-0,4997559;0;-0,4997559;0;-0,4997559;0;-0,4997559;0;-0,4997559;0;-0,4997559;0;-0,4997559;0;-0,4997559;0;-0,4997559;0;-0,4997559;0;-0,4997559;0;-0,4997559;0;-0,4997559;0;-0,4997559;0;-0,4997559;
2021-10-14T18:18:35.191;0;-0,4997559;0;-0,4997559;0;-0,4997559;0;-0,4997559;0;-0,4997559;0;-0,4997559;0;-0,4997559;0;-0,4997559;0;-0,4997559;0;-0,4997559;0;-0,4997559;0;-0,4997559;0;-0,4997559;0;-0,4997559;0;-0,4997559;0;-0,4997559;0;-0,4997559;0;-0,4997559;0;-0,4997559;0;-0,4997559;0;-0,4997559;0;-0,4997559;0;-0,4997559;0;-0,4997559;0;-0,4997559;
2021-10-14T18:18:35.292;0;-0,4997559;0;-0,4997559;0;-0,4997559;0;-0,4997559;0;-0,4997559;0;-0,4997559;0;-0,4997559;0;-0,4997559;0;-0,4997559;0;-0,4997559;0;-0,4997559;0;-0,4997559;0;-0,4997559;0;-0,4997559;0;-0,4997559;0;-0,4997559;0;-0,4997559;0;-0,4997559;0;-0,4997559;0;-0,4997559;0;-0,4997559;0;-0,4997559;0;-0,4997559;0;-0,4997559;0;-0,4997559;
2021-10-14T18:18:35.393;0;-0,4997559;0;-0,4997559;0;-0,4997559;0;-0,4997559;0;-0,4997559;0;-0,4997559;0;-0,4997559;0;-0,4997559;0;-0,4997559;0;-0,4997559;0;-0,4997559;0;-0,4997559;0;-0,4997559;0;-0,4997559;0;-0,4997559;0;-0,4997559;0;-0,4997559;0;-0,4997559;0;-0,4997559;0;-0,4997559;0;-0,4997559;0;-0,4997559;0;-0,4997559;0;-0,4997559;0;-0,4997559;
2021-10-14T18:18:35.494;0;-0,4997559;0;-0,4997559;0;-0,4997559;0;-0,4997559;0;-0,4997559;0;-0,2316895;0;0,04492188;0;-0,4997559;0;-0,4997559;0;0,3933105;0;0,5014648;0;0,5014648;0;-0,07324219;0;-0,4997559;0;0,5014648;0;0,5014648;0;0,5014648;0;-0,3015137;0;-0,4997559;0;0,2116699;0;0,5014648;0;0,5014648;0;-0,4997559;0;-0,4997559;0;-0,1115723;
2021-10-14T18:18:35.596;0;0,5014648;0;-0,1416016;0;-0,4997559;0;-0,2299805;0;0,5014648;0;0,5014648;0;-0,05664063;0;-0,4997559;0;-0,3815918;0;0,5014648;0;0,5014648;0;0,1467285;0;-0,4997559;0;-0,004882813;0;0,5014648;0;0,5014648;0;0,5014648;0;-0,4382324;0;0,2431641;0;0,5014648;0;0,5014648;0;0,5014648;0;-0,4997559;0;-0,1132813;0;0,5014648;
2021-10-14T18:18:35.697;0;0,5014648;0;0,2583008;0;-0,4997559;0;-0,3449707;0;0,5014648;0;0,5014648;0;0,1799316;0;-0,4997559;0;-0,3366699;0;0,5014648;0;0,5014648;0;0,08496094;0;-0,4997559;0;-0,128418;0;0,5014648;0;0,5014648;0;0,333252;0;-0,4997559;0;-0,006591797;0;0,5014648;0;0,5014648;0;0,2016602;0;-0,4997559;0;-0,1750488;0;0,5014648;
2021-10-14T18:18:35.798;0;0,5014648;0;0,2182617;0;-0,4997559;0;-0,1682129;0;0,5014648;0;0,5014648;0;0,5014648;0;-0,3115234;0;-0,09667969;0;0,5014648;0;0,5014648;0;0,5014648;0;-0,119873;0;0,4631348;0;0,5014648;0;0,5014648;0;0,126709;0;-0,4997559;0;0,5014648;0;0,5014648;0;0,5014648;0;0,3532715;0;-0,496582;0;0,5014648;0;0,5014648;
2021-10-14T18:18:35.899;0;0,5014648;0;0,2631836;0;-0,1132813;0;0,5014648;0;0,5014648;0;0,5014648;0;0,2548828;0;-0,1567383;0;0,5014648;0;0,5014648;0;0,5014648;0;0,2233887;0;0,2666016;0;0,5014648;0;0,5014648;0;0,5014648;0;0,5014648;0;0,5014648;0;0,5014648;0;0,5014648;0;0,5014648;0;0,5014648;0;0,5014648;0;0,5014648;0;0,5014648;
2021-10-14T18:18:36.000;0;0,5014648;0;0,5014648;0;0,5014648;0;0,5014648;0;0,5014648;0;0,5014648;0;0,5014648;0;0,5014648;0;0,5014648;0;0,5014648;0;0,5014648;0;0,5014648;0;0,5014648;0;0,5014648;0;0,5014648;0;0,5014648;0;0,09838867;0;0,2548828;0;0,5014648;0;0,5014648;0;0,5014648;0;0,5014648;0;0,5014648;0;0,5014648;0;0,5014648;
2021-10-14T18:18:36.101;0;0,5014648;0;0,5014648;0;0,5014648;0;0,5014648;0;0,5014648;0;0,5014648;0;0,5014648;0;0,5014648;0;0,5014648;0;0,5014648;0;0,5014648;0;0,5014648;0;0,5014648;0;0,5014648;0;0,5014648;0;0,5014648;0;0,5014648;0;0,5014648;0;0,5014648;0;0,5014648;0;0,5014648;0;0,5014648;0;0,5014648;0;0,5014648;0;0,5014648;
2021-10-14T18:18:36.203;0;0,5014648;0;0,5014648;0;0,5014648;0;0,5014648;0;0,5014648;0;0,5014648;0;0,5014648;0;0,5014648;0;0,5014648;0;0,5014648;0;0,5014648;0;0,5014648;0;0,5014648;0;0,5014648;0;0,5014648;0;0,5014648;0;0,5014648;0;0,5014648;0;0,5014648;0;0,5014648;0;0,5014648;0;0,5014648;0;0,5014648;0;0,5014648;0;0,5014648;
2021-10-14T18:18:36.304;0;0,5014648;0;0,5014648;0;0,5014648;0;0,5014648;0;0,5014648;0;0,5014648;0;0,5014648;0;0,5014648;0;0,5014648;0;0,5014648;0;0,5014648;0;0,5014648;0;0,5014648;0;0,5014648;0;0,5014648;0;0,5014648;0;0,5014648;0;0,5014648;0;0,5014648;0;0,5014648;0;0,5014648;0;0,5014648;0;0,5014648;0;0,5014648;0;0,5014648;
2021-10-14T18:18:36.405;0;0,5014648;0;0,5014648;0;0,5014648;0;0,5014648;0;0,5014648;0;0,5014648;0;0,5014648;0;0,5014648;0;0,5014648;0;0,5014648;0;0,5014648;0;0,1850586;0;0,5014648;0;0,5014648;0;0,5014648;0;0,2248535;0;-0,1149902;0;0,5014648;0;0,5014648;0;0,5014648;0;-0,05004883;0;-0,4997559;0;0,5014648;0;0,5014648;0;0,5014648;
