SEP=;
timestemp;deltaTime_0;amplitude[mv]_0;deltaTime_1;amplitude[mv]_1;deltaTime_2;amplitude[mv]_2;deltaTime_3;amplitude[mv]_3;deltaTime_4;amplitude[mv]_4;deltaTime_5;amplitude[mv]_5;deltaTime_6;amplitude[mv]_6;deltaTime_7;amplitude[mv]_7;deltaTime_8;amplitude[mv]_8;deltaTime_9;amplitude[mv]_9;deltaTime_10;amplitude[mv]_10;deltaTime_11;amplitude[mv]_11;deltaTime_12;amplitude[mv]_12;deltaTime_13;amplitude[mv]_13;deltaTime_14;amplitude[mv]_14;deltaTime_15;amplitude[mv]_15;deltaTime_16;amplitude[mv]_16;deltaTime_17;amplitude[mv]_17;deltaTime_18;amplitude[mv]_18;deltaTime_19;amplitude[mv]_19;deltaTime_20;amplitude[mv]_20;deltaTime_21;amplitude[mv]_21;deltaTime_22;amplitude[mv]_22;deltaTime_23;amplitude[mv]_23;deltaTime_24;amplitude[mv]_24;
70.3669;0;-0,4997559;0;-0,4997559;0;-0,4997559;0;-0,4997559;0;-0,4997559;0;-0,4997559;0;-0,4997559;0;-0,4997559;0;-0,4997559;0;-0,4997559;0;-0,4997559;0;-0,4997559;0;-0,4997559;0;-0,4997559;0;-0,4997559;0;-0,4997559;0;-0,4997559;0;-0,4997559;0;-0,4997559;0;-0,4997559;0;-0,4997559;0;-0,4997559;0;-0,4997559;0;-0,4997559;0;-0,4997559;
271.8619;0;0,5014648;0;0,5014648;0;0,5014648;0;0,5014648;0;0,04663086;0;-0,4997559;0;-0,4997559;0;-0,4997559;0;-0,4997559;0;-0,4997559;0;-0,4997559;0;-0,4997559;0;-0,4997559;0;-0,4997559;0;-0,4997559;0;-0,4997559;0;-0,4997559;0;-0,4997559;0;-0,4997559;0;-0,4997559;0;-0,4997559;0;-0,4997559;0;-0,4997559;0;-0,4997559;0;-0,4997559;
372.5879;0;-0,4997559;0;-0,4997559;0;-0,4997559;0;-0,4997559;0;-0,4997559;0;-0,4997559;0;-0,4997559;0;-0,4997559;0;-0,4997559;0;-0,4997559;0;-0,4997559;0;-0,4997559;0;-0,4997559;0;-0,4997559;0;-0,4997559;0;-0,4997559;0;-0,4997559;0;-0,4997559;0;-0,4997559;0;-0,4997559;0;-0,4997559;0;-0,4997559;0;-0,4997559;0;-0,4997559;0;-0,4997559;
473.1113;0;-0,4997559;0;-0,4997559;0;-0,4997559;0;-0,4997559;0;-0,4997559;0;-0,4997559;0;-0,4997559;0;-0,4997559;0;-0,4997559;0;-0,4997559;0;-0,4997559;0;-0,4997559;0;-0,4997559;0;-0,4997559;0;-0,4997559;0;-0,4997559;0;-0,4997559;0;-0,4997559;0;-0,4997559;0;-0,4997559;0;-0,4997559;0;-0,4997559;0;-0,4997559;0;-0,4997559;0;-0,4997559;
573.8589;0;-0,4997559;0;-0,4997559;0;-0,4997559;0;-0,4997559;0;0,06494141;0;0,5014648;0;0,2348633;0;-0,4997559;0;-0,4997559;0;-0,4997559;0;-0,4997559;0;-0,4997559;0;-0,4997559;0;-0,4997559;0;-0,4997559;0;-0,4997559;0;-0,4997559;0;-0,4997559;0;-0,4997559;0;-0,4997559;0;-0,4997559;0;-0,4997559;0;-0,4997559;0;-0,4997559;0;-0,4997559;
674.8803;0;-0,4997559;0;0,05175781;0;-0,4997559;0;-0,4997559;0;-0,4997559;0;-0,4997559;0;-0,4997559;0;-0,4997559;0;-0,4997559;0;-0,4997559;0;-0,4997559;0;-0,4997559;0;-0,4997559;0;-0,4997559;0;-0,4997559;0;-0,4997559;0;-0,4997559;0;-0,4997559;0;-0,4997559;0;-0,4997559;0;0,3815918;0;0,5014648;0;0,5014648;0;0,5014648;0;0,5014648;
777.5459;0;0,5014648;0;0,5014648;0;0,5014648;0;0,5014648;0;0,5014648;0;0,5014648;0;0,5014648;0;0,5014648;0;0,5014648;0;0,5014648;0;0,5014648;0;0,5014648;0;0,5014648;0;-0,0300293;0;-0,4997559;0;-0,4997559;0;-0,4997559;0;0,5014648;0;0,5014648;0;0,5014648;0;0,5014648;0;0,5014648;0;0,5014648;0;0,5014648;0;0,5014648;
877.6743;0;0,5014648;0;0,5014648;0;0,5014648;0;0,5014648;0;0,5014648;0;0,5014648;0;0,5014648;0;0,5014648;0;0,5014648;0;0,5014648;0;0,5014648;0;0,5014648;0;0,5014648;0;0,5014648;0;0,5014648;0;0,5014648;0;0,5014648;0;0,5014648;0;0,5014648;0;0,5014648;0;0,5014648;0;0,5014648;0;0,5014648;0;0,5014648;0;0,5014648;
980.0703;0;0,5014648;0;0,5014648;0;0,5014648;0;0,5014648;0;0,5014648;0;0,5014648;0;0,5014648;0;0,5014648;0;-0,2399902;0;-0,4997559;0;-0,4997559;0;-0,4997559;0;0,5014648;0;0,5014648;0;0,5014648;0;0,5014648;0;0,5014648;0;0,5014648;0;-0,4997559;0;-0,4997559;0;-0,4997559;0;-0,4997559;0;-0,4997559;0;0,3498535;0;0,5014648;
1080.7617;0;0,5014648;0;0,5014648;0;0,5014648;0;0,5014648;0;0,5014648;0;0,5014648;0;0,5014648;0;0,5014648;0;0,5014648;0;0,5014648;0;0,5014648;0;0,5014648;0;0,5014648;0;0,5014648;0;0,5014648;0;0,5014648;0;0,5014648;0;0,5014648;0;0,5014648;0;0,5014648;0;0,5014648;0;0,5014648;0;0,5014648;0;0,5014648;0;0,5014648;
1181.5007;0;0,2849121;0;0,5014648;0;0,121582;0;-0,4997559;0;-0,4997559;0;-0,4997559;0;-0,4997559;0;-0,4997559;0;-0,4997559;0;-0,4997559;0;-0,4997559;0;-0,4997559;0;-0,4997559;0;-0,4997559;0;-0,4997559;0;-0,4997559;0;-0,4997559;0;-0,4997559;0;-0,4997559;0;-0,4997559;0;-0,4997559;0;-0,4997559;0;-0,4997559;0;-0,4997559;0;-0,4997559;
1282.5164;0;-0,4997559;0;-0,4997559;0;-0,4997559;0;-0,4997559;0;-0,4997559;0;-0,4997559;0;-0,4997559;0;-0,4147949;0;-0,4997559;0;-0,4997559;0;-0,4997559;0;-0,1098633;0;0,5014648;0;-0,2165527;0;-0,4997559;0;-0,4997559;0;0,01342773;0;0,5014648;0;0,5014648;0;0,5014648;0;0,5014648;0;0,5014648;0;0,5014648;0;0,5014648;0;0,5014648;
1384.1413;0;0,5014648;0;0,5014648;0;0,5014648;0;0,5014648;0;0,5014648;0;0,5014648;0;0,5014648;0;0,5014648;0;0,5014648;0;0,5014648;0;0,5014648;0;0,5014648;0;0,5014648;0;0,5014648;0;0,5014648;0;0,5014648;0;0,5014648;0;0,5014648;0;0,5014648;0;0,4316406;0;-0,04492188;0;0,5014648;0;0,5014648;0;-0,4997559;0;-0,4997559;
1484.9471;0;-0,4997559;0;0,5014648;0;0,5014648;0;0,5014648;0;0,2248535;0;0,5014648;0;0,5014648;0;0,5014648;0;0,5014648;0;0,5014648;0;0,5014648;0;0,5014648;0;0,5014648;0;0,5014648;0;0,5014648;0;0,5014648;0;0,5014648;0;0,5014648;0;0,5014648;0;0,5014648;0;0,5014648;0;0,5014648;0;0,5014648;0;0,5014648;0;0,5014648;
1585.4402;0;0,5014648;0;0,5014648;0;0,5014648;0;0,5014648;0;0,5014648;0;0,5014648;0;0,5014648;0;0,5014648;0;0,5014648;0;0,5014648;0;0,5014648;0;0,5014648;0;0,5014648;0;0,5014648;0;0,5014648;0;0,5014648;0;0,5014648;0;0,5014648;0;0,5014648;0;0,5014648;0;0,5014648;0;0,5014648;0;0,5014648;0;0,5014648;0;0,5014648;
1685.3931;0;0,5014648;0;0,5014648;0;0,5014648;0;0,5014648;0;0,5014648;0;0,5014648;0;0,5014648;0;0,5014648;0;0,5014648;0;0,5014648;0;0,5014648;0;0,5014648;0;-0,1782227;0;-0,4997559;0;-0,4997559;0;-0,4997559;0;-0,4997559;0;-0,4997559;0;-0,4997559;0;-0,4997559;0;-0,4997559;0;-0,4997559;0;-0,4997559;0;-0,4997559;0;-0,4997559;
1786.2818;0;-0,4997559;0;-0,4997559;0;-0,4997559;0;-0,4997559;0;-0,4997559;0;-0,4997559;0;-0,4997559;0;-0,4997559;0;-0,4997559;0;-0,4997559;0;-0,4997559;0;-0,4997559;0;-0,4997559;0;-0,4997559;0;-0,4997559;0;-0,4997559;0;-0,4997559;0;-0,4997559;0;-0,4997559;0;-0,4997559;0;-0,4997559;0;-0,4997559;0;-0,4997559;0;-0,4997559;0;-0,4997559;
1887.0331;0;-0,4997559;0;-0,4997559;0;-0,4997559;0;-0,4997559;0;-0,4997559;0;-0,4997559;0;-0,4997559;0;-0,4997559;0;-0,4997559;0;-0,4997559;0;-0,4997559;0;-0,4997559;0;-0,4997559;0;-0,4997559;0;-0,4997559;0;-0,4997559;0;-0,4997559;0;-0,4997559;0;-0,4997559;0;-0,4997559;0;-0,4997559;0;-0,4997559;0;-0,4997559;0;-0,4997559;0;-0,4997559;
1987.7489;0;-0,4997559;0;-0,4997559;0;-0,4997559;0;-0,4997559;0;-0,4997559;0;-0,4997559;0;-0,4997559;0;-0,4997559;0;-0,4997559;0;-0,4997559;0;-0,4997559;0;-0,4997559;0;-0,4997559;0;-0,4997559;0;-0,4997559;0;-0,4997559;0;-0,4997559;0;-0,4997559;0;-0,4997559;0;-0,4997559;0;-0,4997559;0;-0,4997559;0;-0,4997559;0;-0,4997559;0;-0,4997559;
2088.4355;0;-0,4997559;0;-0,1865234;0;0,5014648;0;-0,4631348;0;-0,4997559;0;-0,4997559;0;-0,4997559;0;-0,4997559;0;-0,4997559;0;-0,4997559;0;-0,4997559;0;-0,4997559;0;-0,4997559;0;-0,4997559;0;-0,4997559;0;-0,4997559;0;-0,4997559;0;-0,4997559;0;-0,4997559;0;-0,4997559;0;-0,4997559;0;0,5014648;0;0,5014648;0;0,5014648;0;0,5014648;
2189.2093;0;0,5014648;0;0,5014648;0;0,5014648;0;0,5014648;0;0,5014648;0;0,5014648;0;0,5014648;0;-0,04174805;0;-0,4997559;0;-0,4997559;0;-0,4997559;0;-0,4997559;0;-0,4997559;0;-0,4997559;0;-0,4997559;0;-0,4997559;0;-0,4997559;0;-0,4997559;0;-0,4997559;0;-0,4997559;0;-0,4997559;0;-0,4997559;0;-0,4997559;0;-0,4997559;0;-0,4997559;
2289.8933;0;-0,4997559;0;-0,4997559;0;0,03344727;0;0,5014648;0;0,5014648;0;0,5014648;0;0,5014648;0;0,5014648;0;0,5014648;0;0,2431641;0;0,5014648;0;0,5014648;0;0,5014648;0;0,5014648;0;0,5014648;0;0,5014648;0;0,5014648;0;0,5014648;0;0,5014648;0;0,5014648;0;0,5014648;0;0,5014648;0;0,5014648;0;0,5014648;0;0,5014648;
2390.6213;0;0,5014648;0;0,5014648;0;0,5014648;0;0,5014648;0;0,5014648;0;0,5014648;0;0,5014648;0;0,5014648;0;0,5014648;0;0,5014648;0;0,5014648;0;0,5014648;0;0,5014648;0;0,5014648;0;0,5014648;0;0,5014648;0;0,5014648;0;0,5014648;0;0,5014648;0;0,5014648;0;0,5014648;0;0,5014648;0;0,5014648;0;0,5014648;0;0,5014648;
2491.3319;0;0,5014648;0;0,5014648;0;0,5014648;0;-0,3015137;0;0,5014648;0;0,5014648;0;0,5014648;0;0,5014648;0;0,5014648;0;-0,4997559;0;-0,4348145;0;0,5014648;0;0,5014648;0;0,5014648;0;0,5014648;0;-0,4997559;0;0,5014648;0;0,5014648;0;0,5014648;0;0,5014648;0;-0,01342773;0;-0,4997559;0;-0,4997559;0;-0,4997559;0;-0,4997559;
2591.7145;0;-0,4997559;0;-0,4997559;0;-0,4997559;0;-0,4997559;0;-0,4997559;0;-0,4997559;0;-0,4997559;0;-0,4997559;0;-0,4997559;0;0,3415527;0;0,5014648;0;0,5014648;0;0,5014648;0;0,5014648;0;0,5014648;0;0,5014648;0;0,5014648;0;0,5014648;0;0,5014648;0;0,5014648;0;0,5014648;0;0,5014648;0;0,5014648;0;0,5014648;0;0,5014648;
2692.1754;0;0,5014648;0;0,5014648;0;0,5014648;0;0,5014648;0;0,5014648;0;0,5014648;0;0,5014648;0;0,5014648;0;0,5014648;0;0,5014648;0;0,5014648;0;0,5014648;0;0,2365723;0;-0,4997559;0;-0,4997559;0;-0,4997559;0;-0,4997559;0;-0,4997559;0;-0,4997559;0;-0,4997559;0;-0,4997559;0;-0,4997559;0;-0,4997559;0;-0,4997559;0;-0,4997559;
2792.9169;0;-0,4997559;0;0,1965332;0;0,5014648;0;0,5014648;0;0,5014648;0;0,5014648;0;0,5014648;0;0,5014648;0;0,5014648;0;0,5014648;0;0,5014648;0;0,5014648;0;0,5014648;0;0,5014648;0;0,5014648;0;0,5014648;0;0,5014648;0;0,5014648;0;0,5014648;0;0,5014648;0;0,5014648;0;0,5014648;0;0,5014648;0;0,5014648;0;0,5014648;
2893.6906;0;0,5014648;0;0,5014648;0;0,5014648;0;0,5014648;0;-0,4997559;0;0,5014648;0;0,5014648;0;0,5014648;0;0,5014648;0;0,5014648;0;0,5014648;0;0,5014648;0;0,5014648;0;0,5014648;0;0,5014648;0;0,5014648;0;0,5014648;0;0,5014648;0;0,5014648;0;0,5014648;0;0,5014648;0;0,5014648;0;0,5014648;0;0,5014648;0;0,5014648;
2993.9779;0;0,5014648;0;0,5014648;0;0,5014648;0;0,5014648;0;0,5014648;0;0,5014648;0;0,5014648;0;0,5014648;0;0,5014648;0;0,5014648;0;0,5014648;0;0,5014648;0;0,5014648;0;0,5014648;0;0,5014648;0;0,5014648;0;0,5014648;0;0,5014648;0;0,5014648;0;0,5014648;0;0,5014648;0;0,5014648;0;0,5014648;0;0,5014648;0;0,5014648;
3094.943;0;0,5014648;0;0,5014648;0;0,5014648;0;0,5014648;0;0,5014648;0;0,5014648;0;0,5014648;0;0,5014648;0;0,5014648;0;0,5014648;0;0,5014648;0;0,5014648;0;0,5014648;0;0,5014648;0;-0,4997559;0;-0,4997559;0;-0,4997559;0;-0,4997559;0;-0,4997559;0;-0,4997559;0;-0,4997559;0;-0,4997559;0;-0,4997559;0;-0,4997559;0;-0,4997559;
3195.4583;0;-0,4997559;0;-0,4997559;0;-0,4997559;0;-0,4997559;0;-0,4997559;0;-0,4997559;0;0,5014648;0;0,5014648;0;0,5014648;0;0,5014648;0;0,5014648;0;0,5014648;0;0,5014648;0;0,5014648;0;0,5014648;0;0,5014648;0;0,5014648;0;0,5014648;0;0,5014648;0;0,5014648;0;0,5014648;0;0,5014648;0;0,5014648;0;0,5014648;0;0,5014648;
3296.0862;0;0,5014648;0;0,5014648;0;0,5014648;0;0,5014648;0;0,5014648;0;0,5014648;0;0,5014648;0;0,5014648;0;0,5014648;0;0,5014648;0;0,5014648;0;0,5014648;0;0,5014648;0;0,5014648;0;0,5014648;0;0,5014648;0;0,5014648;0;0,5014648;0;0,5014648;0;0,5014648;0;0,5014648;0;0,5014648;0;0,5014648;0;0,5014648;0;0,5014648;
3396.8266;0;0,5014648;0;0,5014648;0;0,5014648;0;0,5014648;0;0,5014648;0;0,5014648;0;0,5014648;0;0,5014648;0;0,5014648;0;0,5014648;0;0,5014648;0;0,5014648;0;0,5014648;0;0,5014648;0;0,5014648;0;0,5014648;0;0,5014648;0;0,5014648;0;0,5014648;0;0,5014648;0;0,5014648;0;0,5014648;0;0,5014648;0;0,5014648;0;0,5014648;
3497.5464;0;0,5014648;0;0,5014648;0;0,5014648;0;0,5014648;0;0,5014648;0;0,5014648;0;0,5014648;0;0,5014648;0;0,5014648;0;-0,4997559;0;0,5014648;0;0,5014648;0;0,5014648;0;0,5014648;0;-0,4448242;0;-0,4997559;0;0,1350098;0;0,5014648;0;0,5014648;0;0,5014648;0;0,5014648;0;0,5014648;0;-0,4997559;0;-0,4997559;0;-0,4997559;
3598.3231;0;-0,4997559;0;-0,4997559;0;-0,4997559;0;-0,4997559;0;-0,4997559;0;-0,4997559;0;-0,4997559;0;-0,4997559;0;-0,4997559;0;-0,4997559;0;-0,4997559;0;-0,4997559;0;-0,4997559;0;-0,4997559;0;-0,4997559;0;-0,4997559;0;-0,4997559;0;-0,4997559;0;-0,4997559;0;-0,4997559;0;-0,4997559;0;-0,4997559;0;-0,4997559;0;-0,4997559;0;-0,4997559;
3699.0338;0;-0,4997559;0;-0,4997559;0;-0,4997559;0;-0,4997559;0;-0,4997559;0;-0,4997559;0;-0,4997559;0;-0,4997559;0;-0,4997559;0;-0,4997559;0;-0,4997559;0;-0,4997559;0;-0,4997559;0;-0,4997559;0;-0,4997559;0;-0,4997559;0;-0,4997559;0;-0,4997559;0;-0,4997559;0;-0,4997559;0;-0,4997559;0;-0,4997559;0;-0,4997559;0;-0,4997559;0;-0,4997559;
3799.7455;0;-0,4997559;0;-0,4997559;0;-0,4997559;0;-0,4997559;0;-0,4997559;0;-0,4997559;0;-0,4997559;0;-0,4997559;0;-0,4997559;0;-0,4997559;0;-0,4997559;0;-0,4997559;0;-0,4997559;0;-0,4997559;0;-0,4997559;0;-0,4997559;0;-0,4997559;0;-0,4997559;0;-0,4997559;0;-0,4997559;0;-0,4997559;0;-0,4997559;0;-0,4997559;0;-0,4997559;0;-0,4997559;
3900.65;0;-0,4997559;0;-0,4997559;0;-0,4997559;0;-0,4997559;0;-0,4997559;0;-0,4997559;0;-0,4997559;0;-0,4997559;0;-0,4997559;0;-0,4997559;0;-0,4997559;0;-0,4997559;0;-0,4997559;0;-0,4997559;0;-0,4997559;0;-0,4997559;0;-0,4997559;0;-0,4997559;0;-0,4997559;0;-0,4997559;0;-0,4997559;0;-0,4997559;0;-0,4997559;0;-0,4997559;0;-0,4997559;
4001.2699;0;-0,4997559;0;-0,4997559;0;-0,4997559;0;-0,4997559;0;-0,4997559;0;-0,4997559;0;-0,4997559;0;-0,4997559;0;-0,4997559;0;-0,4997559;0;-0,4997559;0;-0,4997559;0;-0,4997559;0;-0,4997559;0;-0,4997559;0;-0,4997559;0;-0,4997559;0;-0,4997559;0;-0,4997559;0;-0,4997559;0;-0,4997559;0;-0,4997559;0;-0,4997559;0;-0,4997559;0;-0,4997559;
4101.7783;0;-0,4997559;0;-0,4997559;0;-0,4997559;0;-0,4997559;0;-0,4997559;0;-0,4997559;0;-0,4997559;0;-0,4997559;0;-0,4997559;0;-0,4997559;0;-0,4997559;0;0,5014648;0;0,5014648;0;0,5014648;0;0,5014648;0;0,5014648;0;0,5014648;0;0,5014648;0;0,5014648;0;0,5014648;0;0,5014648;0;0,5014648;0;0,5014648;0;0,5014648;0;0,5014648;
4202.6741;0;0,5014648;0;0,5014648;0;0,5014648;0;0,5014648;0;0,5014648;0;0,5014648;0;-0,494873;0;-0,4997559;0;-0,4997559;0;-0,4997559;0;-0,4997559;0;-0,4997559;0;-0,4997559;0;-0,4997559;0;-0,4997559;0;-0,4997559;0;-0,4997559;0;-0,4997559;0;-0,4997559;0;-0,4997559;0;-0,4997559;0;-0,4997559;0;-0,4997559;0;-0,4997559;0;-0,4997559;
4303.4103;0;-0,4997559;0;-0,4997559;0;-0,4997559;0;-0,4997559;0;-0,4997559;0;-0,4997559;0;-0,4997559;0;-0,4997559;0;-0,4997559;0;-0,4997559;0;-0,4997559;0;-0,4997559;0;-0,4997559;0;-0,4997559;0;-0,4997559;0;-0,4997559;0;-0,4997559;0;-0,4997559;0;-0,4997559;0;-0,4997559;0;-0,4997559;0;-0,4997559;0;-0,4997559;0;-0,4997559;0;-0,4997559;
4404.3895;0;-0,4997559;0;-0,4997559;0;-0,4997559;0;-0,4997559;0;-0,4997559;0;-0,4997559;0;-0,4997559;0;-0,4997559;0;-0,4997559;0;-0,4997559;0;-0,4997559;0;-0,4997559;0;-0,4997559;0;-0,4997559;0;-0,4997559;0;-0,4997559;0;-0,4997559;0;-0,4997559;0;-0,4997559;0;-0,4997559;0;-0,4997559;0;-0,4997559;0;-0,4997559;0;-0,4997559;0;-0,4997559;
4504.5987;0;-0,4997559;0;-0,4997559;0;0,5014648;0;0,5014648;0;0,5014648;0;0,5014648;0;0,5014648;0;0,5014648;0;-0,4997559;0;-0,4997559;0;-0,4997559;0;-0,4997559;0;-0,4997559;0;-0,4997559;0;-0,4997559;0;-0,4997559;0;-0,4997559;0;-0,4997559;0;-0,4997559;0;-0,4997559;0;-0,4997559;0;-0,4997559;0;-0,4997559;0;-0,4997559;0;-0,4997559;
4605.2524;0;-0,4997559;0;-0,4997559;0;-0,4997559;0;0,1682129;0;-0,4997559;0;-0,4997559;0;-0,4997559;0;-0,4997559;0;-0,4997559;0;-0,4997559;0;-0,4997559;0;-0,4997559;0;-0,4997559;0;-0,4997559;0;-0,4997559;0;-0,4997559;0;-0,4997559;0;-0,4997559;0;-0,4997559;0;-0,4997559;0;0,5014648;0;0,5014648;0;0,5014648;0;0,5014648;0;0,5014648;
4705.465;0;0,5014648;0;0,5014648;0;0,5014648;0;0,5014648;0;0,5014648;0;0,5014648;0;0,5014648;0;0,5014648;0;0,5014648;0;0,5014648;0;0,5014648;0;0,5014648;0;0,5014648;0;0,5014648;0;0,5014648;0;0,5014648;0;0,5014648;0;0,5014648;0;0,5014648;0;0,5014648;0;0,5014648;0;0,5014648;0;0,5014648;0;0,5014648;0;0,5014648;
4805.7801;0;0,5014648;0;0,5014648;0;0,5014648;0;0,5014648;0;0,5014648;0;0,5014648;0;0,5014648;0;0,5014648;0;0,5014648;0;0,5014648;0;0,5014648;0;0,5014648;0;0,5014648;0;0,5014648;0;0,5014648;0;0,5014648;0;0,5014648;0;0,5014648;0;0,5014648;0;0,5014648;0;0,5014648;0;0,5014648;0;0,5014648;0;0,5014648;0;0,5014648;
4906.5018;0;0,5014648;0;0,5014648;0;0,5014648;0;0,5014648;0;0,5014648;0;0,5014648;0;0,5014648;0;0,5014648;0;0,5014648;0;0,5014648;0;0,5014648;0;0,5014648;0;0,5014648;0;0,5014648;0;0,5014648;0;0,5014648;0;0,5014648;0;0,5014648;0;0,5014648;0;0,5014648;0;0,5014648;0;0,5014648;0;0,5014648;0;0,5014648;0;0,5014648;
5007.224;0;0,5014648;0;0,5014648;0;0,5014648;0;0,5014648;0;0,5014648;0;0,5014648;0;0,5014648;0;0,5014648;0;0,5014648;0;0,5014648;0;0,5014648;0;0,5014648;0;0,5014648;0;0,5014648;0;0,5014648;0;0,5014648;0;0,5014648;0;0,5014648;0;0,5014648;0;0,5014648;0;0,5014648;0;0,5014648;0;0,5014648;0;0,5014648;0;0,5014648;
5107.8145;0;0,5014648;0;0,5014648;0;-0,05004883;0;-0,4997559;0;-0,4997559;0;-0,4997559;0;-0,4997559;0;-0,4997559;0;-0,4997559;0;-0,4997559;0;-0,4997559;0;-0,4997559;0;-0,4997559;0;-0,4997559;0;-0,4997559;0;-0,4997559;0;-0,4997559;0;-0,4997559;0;-0,4997559;0;-0,4997559;0;-0,4997559;0;-0,4997559;0;-0,4997559;0;-0,4997559;0;-0,4997559;
5208.5426;0;-0,4997559;0;-0,4997559;0;-0,4997559;0;-0,4997559;0;-0,4997559;0;-0,4997559;0;-0,4997559;0;-0,4997559;0;-0,4997559;0;-0,4997559;0;-0,4997559;0;-0,4997559;0;-0,4997559;0;-0,4997559;0;-0,4997559;0;-0,4997559;0;-0,4997559;0;-0,4997559;0;-0,4997559;0;-0,4997559;0;-0,4997559;0;-0,4997559;0;-0,4997559;0;-0,4997559;0;-0,4997559;
5308.9884;0;-0,4997559;0;-0,4997559;0;-0,4997559;0;-0,4997559;0;-0,4997559;0;0,3449707;0;0,5014648;0;0,5014648;0;0,1049805;0;-0,4997559;0;-0,4997559;0;-0,4997559;0;-0,4997559;0;0,5014648;0;0,5014648;0;0,5014648;0;0,5014648;0;0,5014648;0;0,5014648;0;0,5014648;0;0,5014648;0;0,5014648;0;0,5014648;0;0,5014648;0;0,5014648;
5409.2806;0;0,5014648;0;0,5014648;0;0,5014648;0;0,5014648;0;0,5014648;0;0,5014648;0;0,5014648;0;0,5014648;0;0,5014648;0;0,5014648;0;0,5014648;0;0,5014648;0;0,5014648;0;0,5014648;0;0,5014648;0;0,5014648;0;0,5014648;0;0,5014648;0;0,5014648;0;0,5014648;0;0,5014648;0;0,5014648;0;0,5014648;0;0,5014648;0;0,5014648;
5509.6331;0;0,5014648;0;0,5014648;0;0,5014648;0;0,5014648;0;0,5014648;0;0,5014648;0;0,5014648;0;0,5014648;0;0,5014648;0;-0,4997559;0;-0,4997559;0;-0,4997559;0;-0,4997559;0;-0,4997559;0;-0,4997559;0;-0,4997559;0;-0,4997559;0;-0,4997559;0;0,5014648;0;0,5014648;0;0,5014648;0;0,5014648;0;0,5014648;0;0,5014648;0;0,5014648;
5610.602;0;0,5014648;0;0,5014648;0;0,5014648;0;0,5014648;0;0,5014648;0;0,5014648;0;0,5014648;0;0,5014648;0;0,5014648;0;0,5014648;0;0,5014648;0;0,5014648;0;0,5014648;0;0,5014648;0;0,5014648;0;0,5014648;0;0,5014648;0;0,5014648;0;0,5014648;0;0,5014648;0;0,5014648;0;0,5014648;0;0,5014648;0;0,5014648;0;0,5014648;
5711.9627;0;0,5014648;0;0,5014648;0;0,5014648;0;0,5014648;0;0,5014648;0;0,5014648;0;0,5014648;0;0,5014648;0;0,5014648;0;0,5014648;0;0,5014648;0;0,5014648;0;0,5014648;0;0,5014648;0;0,5014648;0;0,5014648;0;0,5014648;0;0,5014648;0;0,5014648;0;0,5014648;0;0,5014648;0;0,5014648;0;0,5014648;0;0,5014648;0;0,5014648;
5814.2947;0;0,5014648;0;0,5014648;0;0,5014648;0;0,5014648;0;0,5014648;0;0,5014648;0;0,5014648;0;0,5014648;0;0,5014648;0;0,5014648;0;0,5014648;0;0,5014648;0;0,5014648;0;0,5014648;0;0,5014648;0;0,5014648;0;0,5014648;0;0,5014648;0;0,5014648;0;0,5014648;0;0,5014648;0;0,5014648;0;0,5014648;0;0,5014648;0;0,5014648;
5914.6825;0;0,5014648;0;0,5014648;0;0,5014648;0;0,5014648;0;0,5014648;0;0,5014648;0;0,5014648;0;0,5014648;0;0,5014648;0;0,5014648;0;0,5014648;0;0,5014648;0;0,5014648;0;0,5014648;0;0,5014648;0;0,5014648;0;0,5014648;0;0,5014648;0;0,5014648;0;0,208252;0;-0,4997559;0;-0,4997559;0;-0,4997559;0;0,5014648;0;0,5014648;
6020.3691;0;0,5014648;0;0,5014648;0;0,5014648;0;0,5014648;0;0,5014648;0;0,5014648;0;0,5014648;0;0,5014648;0;0,5014648;0;0,5014648;0;0,5014648;0;0,5014648;0;0,5014648;0;0,5014648;0;0,5014648;0;0,5014648;0;0,5014648;0;0,5014648;0;0,5014648;0;0,5014648;0;0,5014648;0;0,5014648;0;0,5014648;0;0,5014648;0;0,5014648;
6120.6177;0;0,5014648;0;0,5014648;0;0,5014648;0;0,5014648;0;0,5014648;0;0,5014648;0;0,5014648;0;0,5014648;0;0,5014648;0;0,5014648;0;0,5014648;0;0,5014648;0;0,5014648;0;0,5014648;0;0,5014648;0;0,5014648;0;0,5014648;0;0,5014648;0;0,5014648;0;0,5014648;0;0,5014648;0;0,5014648;0;0,5014648;0;0,5014648;0;0,5014648;
6220.9469;0;0,5014648;0;0,5014648;0;0,5014648;0;0,5014648;0;0,5014648;0;0,5014648;0;0,5014648;0;0,5014648;0;0,5014648;0;0,5014648;0;0,5014648;0;0,5014648;0;0,5014648;0;0,5014648;0;-0,4997559;0;-0,4997559;0;-0,4997559;0;-0,4997559;0;-0,4997559;0;-0,4997559;0;-0,4997559;0;-0,4997559;0;-0,4997559;0;-0,4997559;0;-0,4997559;
6324.2225;0;-0,4997559;0;-0,4997559;0;-0,4997559;0;-0,4997559;0;-0,4997559;0;-0,4997559;0;-0,4997559;0;-0,4997559;0;-0,4997559;0;-0,4997559;0;-0,4997559;0;-0,4997559;0;-0,4997559;0;-0,4997559;0;-0,4997559;0;-0,4997559;0;-0,4997559;0;-0,4997559;0;-0,4997559;0;-0,4997559;0;-0,4997559;0;-0,4997559;0;-0,4997559;0;-0,4997559;0;-0,4997559;
6424.2904;0;-0,4997559;0;-0,4997559;0;-0,4997559;0;-0,4997559;0;-0,4997559;0;-0,4997559;0;-0,4997559;0;-0,4997559;0;-0,4997559;0;-0,4997559;0;-0,4997559;0;-0,4997559;0;-0,4997559;0;-0,4997559;0;-0,4997559;0;-0,4997559;0;-0,4997559;0;-0,4997559;0;-0,4997559;0;-0,4997559;0;-0,4997559;0;-0,4997559;0;-0,4997559;0;-0,4997559;0;-0,4997559;
6525.0371;0;-0,4997559;0;-0,4997559;0;-0,4997559;0;-0,4997559;0;-0,4997559;0;-0,4997559;0;-0,4997559;0;-0,4997559;0;-0,4997559;0;-0,4997559;0;-0,4997559;0;-0,4997559;0;-0,4997559;0;-0,4997559;0;-0,4997559;0;-0,4997559;0;-0,4997559;0;-0,4997559;0;-0,4997559;0;-0,4997559;0;-0,4997559;0;-0,4997559;0;-0,4997559;0;-0,4997559;0;-0,4997559;
6626.7355;0;-0,4997559;0;-0,4997559;0;-0,4997559;0;-0,4997559;0;-0,4997559;0;-0,4997559;0;-0,4997559;0;-0,4997559;0;-0,4997559;0;-0,4997559;0;-0,4997559;0;-0,4997559;0;-0,4997559;0;-0,4997559;0;-0,4997559;0;-0,4997559;0;-0,4997559;0;-0,4997559;0;-0,4997559;0;-0,4997559;0;-0,4997559;0;-0,4997559;0;-0,4997559;0;-0,4997559;0;-0,4997559;
6727.1027;0;-0,4997559;0;-0,4997559;0;-0,4997559;0;-0,4997559;0;-0,4997559;0;-0,4997559;0;-0,4997559;0;-0,4997559;0;-0,4997559;0;-0,4997559;0;-0,4997559;0;-0,4997559;0;-0,4997559;0;-0,4997559;0;-0,4997559;0;-0,4997559;0;-0,4997559;0;-0,4997559;0;-0,4997559;0;-0,4997559;0;-0,4997559;0;-0,4997559;0;-0,4997559;0;-0,4997559;0;-0,4997559;
6828.8787;0;-0,4997559;0;-0,4997559;0;-0,4997559;0;-0,4997559;0;-0,4997559;0;-0,4997559;0;-0,4997559;0;-0,4997559;0;-0,4997559;0;-0,4997559;0;0,5014648;0;0,5014648;0;0,5014648;0;0,5014648;0;0,5014648;0;0,5014648;0;0,5014648;0;0,5014648;0;0,5014648;0;0,5014648;0;0,5014648;0;0,5014648;0;0,5014648;0;0,5014648;0;0,5014648;
6929.5938;0;0,5014648;0;0,5014648;0;0,5014648;0;0,5014648;0;0,3999023;0;0,5014648;0;-0,08325195;0;-0,4997559;0;-0,4997559;0;-0,4997559;0;-0,4997559;0;-0,4997559;0;-0,4997559;0;-0,4997559;0;-0,3798828;0;0,5014648;0;0,5014648;0;0,5014648;0;0,4682617;0;0,5014648;0;0,5014648;0;0,5014648;0;0,5014648;0;0,3198242;0;0,5014648;
7030.2861;0;0,5014648;0;0,5014648;0;-0,3249512;0;-0,4997559;0;-0,4997559;0;-0,125;0;-0,2666016;0;-0,4997559;0;-0,4997559;0;-0,4997559;0;-0,4997559;0;-0,4997559;0;-0,4997559;0;-0,4997559;0;-0,4997559;0;-0,4997559;0;-0,4997559;0;-0,4997559;0;-0,4997559;0;-0,4997559;0;0,5014648;0;0,5014648;0;0,5014648;0;0,5014648;0;0,5014648;
7130.855;0;0,5014648;0;0,5014648;0;0,5014648;0;0,5014648;0;0,01000977;0;-0,4997559;0;-0,4997559;0;-0,4997559;0;-0,4997559;0;-0,4997559;0;-0,4997559;0;-0,4997559;0;-0,4997559;0;-0,4997559;0;-0,4997559;0;-0,4997559;0;-0,4997559;0;-0,4997559;0;-0,4997559;0;-0,4997559;0;-0,4997559;0;-0,4997559;0;-0,4997559;0;-0,2216797;0;0,5014648;
7231.3023;0;0,5014648;0;0,5014648;0;0,5014648;0;0,5014648;0;0,5014648;0;0,5014648;0;0,5014648;0;0,5014648;0;0,5014648;0;0,5014648;0;0,5014648;0;0,5014648;0;0,5014648;0;0,5014648;0;0,5014648;0;0,5014648;0;0,5014648;0;0,5014648;0;0,5014648;0;0,5014648;0;0,5014648;0;0,2182617;0;-0,4997559;0;-0,4997559;0;-0,4997559;
7332.0443;0;-0,4997559;0;-0,4997559;0;-0,4997559;0;-0,4997559;0;-0,4997559;0;-0,4997559;0;-0,4997559;0;-0,4997559;0;-0,4997559;0;-0,4997559;0;-0,4997559;0;-0,4997559;0;-0,4997559;0;-0,4997559;0;-0,4997559;0;-0,4997559;0;-0,4997559;0;-0,4997559;0;-0,4997559;0;-0,4997559;0;-0,4997559;0;-0,4997559;0;-0,4997559;0;-0,4997559;0;-0,4997559;
7432.4323;0;-0,4997559;0;-0,4997559;0;-0,4997559;0;-0,4997559;0;-0,4997559;0;-0,4997559;0;-0,4997559;0;-0,4997559;0;-0,4997559;0;-0,4997559;0;-0,4997559;0;-0,4997559;0;-0,4997559;0;-0,4997559;0;-0,4997559;0;-0,4997559;0;-0,4997559;0;-0,4997559;0;-0,4997559;0;-0,4997559;0;-0,4997559;0;-0,4997559;0;-0,4997559;0;-0,4997559;0;-0,4997559;
7534.1171;0;-0,4997559;0;-0,4997559;0;-0,4997559;0;-0,4997559;0;-0,4997559;0;-0,4997559;0;-0,4997559;0;-0,4997559;0;-0,4997559;0;-0,4997559;0;-0,4997559;0;-0,4997559;0;-0,4997559;0;-0,4997559;0;-0,4997559;0;-0,4997559;0;-0,4997559;0;-0,4997559;0;-0,4997559;0;-0,4997559;0;-0,4997559;0;-0,4997559;0;0,5014648;0;0,5014648;0;0,5014648;
7634.9227;0;0,5014648;0;0,5014648;0;0,5014648;0;0,5014648;0;0,5014648;0;0,5014648;0;0,5014648;0;-0,4997559;0;-0,4997559;0;-0,4997559;0;-0,4997559;0;-0,04663086;0;-0,4997559;0;-0,4997559;0;-0,3781738;0;0,5014648;0;0,5014648;0;0,5014648;0;0,5014648;0;0,5014648;0;0,5014648;0;0,5014648;0;0,5014648;0;0,5014648;0;0,5014648;
7735.6218;0;0,5014648;0;0,5014648;0;0,5014648;0;0,5014648;0;0,5014648;0;0,5014648;0;0,5014648;0;0,5014648;0;0,5014648;0;0,5014648;0;0,5014648;0;0,5014648;0;-0,4997559;0;-0,4997559;0;-0,4997559;0;-0,4997559;0;-0,4997559;0;-0,4997559;0;-0,4997559;0;-0,4997559;0;-0,4997559;0;-0,4997559;0;-0,4997559;0;-0,4997559;0;-0,4997559;
7836.4249;0;-0,4997559;0;0,5014648;0;0,5014648;0;0,5014648;0;0,5014648;0;0,5014648;0;0,5014648;0;0,5014648;0;0,5014648;0;0,5014648;0;0,5014648;0;0,5014648;0;0,5014648;0;0,5014648;0;0,5014648;0;0,5014648;0;0,5014648;0;0,5014648;0;0,5014648;0;0,5014648;0;0,5014648;0;-0,4997559;0;-0,4997559;0;-0,4997559;0;-0,4997559;
7937.1239;0;-0,4997559;0;-0,4997559;0;-0,4997559;0;-0,4997559;0;-0,4997559;0;-0,4997559;0;-0,4997559;0;-0,4997559;0;-0,4997559;0;-0,1716309;0;0,5014648;0;0,5014648;0;0,5014648;0;0,5014648;0;0,5014648;0;0,5014648;0;0,5014648;0;0,5014648;0;0,5014648;0;0,5014648;0;0,5014648;0;0,5014648;0;0,5014648;0;0,5014648;0;0,5014648;
8037.8493;0;0,5014648;0;0,5014648;0;0,5014648;0;0,5014648;0;0,5014648;0;0,5014648;0;0,5014648;0;0,5014648;0;-0,4516602;0;-0,4997559;0;-0,4997559;0;-0,4997559;0;-0,4997559;0;-0,4997559;0;-0,4997559;0;-0,4997559;0;-0,4997559;0;-0,4997559;0;-0,4997559;0;-0,4997559;0;-0,4997559;0;-0,4997559;0;-0,4997559;0;0,5014648;0;0,5014648;
8138.5505;0;0,5014648;0;-0,4997559;0;-0,4997559;0;-0,4997559;0;-0,4997559;0;-0,4997559;0;-0,4997559;0;-0,4997559;0;-0,4997559;0;-0,4997559;0;0,5014648;0;0,5014648;0;0,5014648;0;-0,4997559;0;-0,4997559;0;0,5014648;0;0,5014648;0;0,5014648;0;0,5014648;0;0,5014648;0;0,5014648;0;0,5014648;0;0,5014648;0;0,5014648;0;0,5014648;
8239.3428;0;0,5014648;0;0,5014648;0;0,5014648;0;0,5014648;0;0,5014648;0;0,5014648;0;0,5014648;0;0,5014648;0;0,5014648;0;0,5014648;0;0,5014648;0;0,5014648;0;0,5014648;0;0,5014648;0;0,5014648;0;0,5014648;0;0,5014648;0;0,5014648;0;0,5014648;0;0,5014648;0;0,5014648;0;0,5014648;0;0,5014648;0;0,5014648;0;0,5014648;
8340.0273;0;0,5014648;0;0,5014648;0;0,5014648;0;0,5014648;0;0,5014648;0;0,5014648;0;0,5014648;0;0,5014648;0;0,5014648;0;0,5014648;0;0,5014648;0;0,5014648;0;0,5014648;0;0,5014648;0;0,5014648;0;0,5014648;0;0,5014648;0;0,5014648;0;0,5014648;0;0,5014648;0;0,5014648;0;0,5014648;0;0,5014648;0;0,5014648;0;0,5014648;
8440.7434;0;0,5014648;0;0,5014648;0;0,5014648;0;0,5014648;0;0,5014648;0;0,5014648;0;0,5014648;0;0,5014648;0;0,5014648;0;0,5014648;0;0,5014648;0;0,5014648;0;0,5014648;0;0,5014648;0;0,5014648;0;0,5014648;0;0,5014648;0;0,5014648;0;0,5014648;0;0,5014648;0;0,5014648;0;0,5014648;0;0,5014648;0;-0,4997559;0;-0,4997559;
8541.7261;0;-0,4997559;0;-0,4997559;0;-0,4997559;0;-0,4997559;0;-0,4997559;0;-0,4997559;0;-0,4997559;0;-0,4997559;0;-0,4997559;0;-0,4997559;0;-0,4997559;0;-0,4997559;0;-0,4997559;0;-0,4997559;0;-0,4997559;0;-0,4997559;0;-0,4997559;0;-0,4997559;0;-0,4997559;0;-0,4997559;0;-0,4997559;0;-0,4997559;0;-0,4997559;0;-0,4997559;0;-0,4997559;
8642.1966;0;-0,4997559;0;0,5014648;0;0,5014648;0;0,5014648;0;0,5014648;0;0,5014648;0;0,5014648;0;0,5014648;0;0,5014648;0;0,5014648;0;0,5014648;0;0,5014648;0;0,5014648;0;0,5014648;0;0,5014648;0;0,5014648;0;0,5014648;0;0,5014648;0;0,5014648;0;0,5014648;0;0,5014648;0;0,5014648;0;0,5014648;0;0,5014648;0;0,5014648;
8742.923;0;0,5014648;0;0,5014648;0;0,5014648;0;0,5014648;0;0,5014648;0;0,5014648;0;0,5014648;0;0,5014648;0;0,5014648;0;0,06005859;0;-0,4997559;0;-0,4997559;0;-0,4997559;0;-0,4997559;0;-0,4997559;0;-0,4997559;0;-0,4997559;0;-0,4997559;0;-0,4997559;0;-0,4997559;0;-0,4997559;0;-0,4997559;0;-0,4997559;0;-0,4997559;0;-0,2299805;
8844.5281;0;0,5014648;0;0,5014648;0;-0,4997559;0;-0,4997559;0;-0,4997559;0;0,5014648;0;0,5014648;0;0,5014648;0;0,5014648;0;0,5014648;0;0,5014648;0;0,5014648;0;0,5014648;0;0,5014648;0;0,5014648;0;0,5014648;0;0,5014648;0;0,5014648;0;0,5014648;0;0,2282715;0;-0,4997559;0;-0,4997559;0;-0,4997559;0;-0,4997559;0;-0,4997559;
8945.1213;0;-0,4997559;0;-0,4997559;0;-0,4997559;0;-0,4997559;0;-0,4997559;0;-0,4997559;0;-0,4997559;0;-0,4997559;0;-0,4997559;0;-0,4997559;0;-0,4997559;0;-0,4997559;0;-0,4997559;0;-0,4997559;0;-0,4997559;0;-0,4997559;0;-0,4997559;0;-0,4997559;0;-0,4997559;0;-0,4997559;0;-0,4997559;0;-0,4997559;0;-0,4997559;0;-0,4997559;0;-0,4997559;
9046.8513;0;-0,4997559;0;-0,4997559;0;-0,4997559;0;-0,4997559;0;-0,4997559;0;-0,4997559;0;-0,4997559;0;-0,4997559;0;-0,4997559;0;-0,4997559;0;-0,4997559;0;-0,4997559;0;-0,4997559;0;-0,4997559;0;-0,4997559;0;-0,4997559;0;-0,4997559;0;-0,4997559;0;-0,4997559;0;-0,4997559;0;-0,4997559;0;-0,4997559;0;-0,4997559;0;-0,4997559;0;-0,4997559;
9147.6967;0;-0,4997559;0;-0,4997559;0;-0,4997559;0;-0,4997559;0;-0,4997559;0;-0,4997559;0;-0,4997559;0;-0,4997559;0;-0,4997559;0;-0,4997559;0;-0,4997559;0;-0,4997559;0;-0,4997559;0;-0,4997559;0;-0,4997559;0;-0,4997559;0;-0,4997559;0;-0,4997559;0;-0,4997559;0;-0,4997559;0;-0,4997559;0;-0,4997559;0;-0,4997559;0;-0,4997559;0;-0,4997559;
9248.4262;0;-0,4997559;0;-0,4997559;0;-0,4997559;0;-0,4997559;0;-0,4997559;0;-0,4997559;0;-0,4997559;0;-0,4997559;0;-0,4997559;0;-0,4997559;0;-0,4997559;0;-0,4997559;0;-0,4997559;0;-0,4997559;0;-0,4997559;0;-0,4997559;0;-0,4997559;0;-0,4997559;0;-0,4997559;0;-0,4997559;0;-0,4997559;0;-0,4997559;0;-0,4997559;0;-0,4997559;0;-0,4997559;
9348.5357;0;-0,4997559;0;-0,4997559;0;-0,4997559;0;-0,4997559;0;-0,4997559;0;-0,4997559;0;-0,4997559;0;-0,4997559;0;-0,4499512;0;0,5014648;0;0,5014648;0;0,5014648;0;0,5014648;0;0,3532715;0;-0,4997559;0;0,5014648;0;0,5014648;0;0,5014648;0;0,5014648;0;0,5014648;0;0,5014648;0;0,5014648;0;0,5014648;0;0,5014648;0;0,5014648;
9449.9019;0;0,5014648;0;0,5014648;0;0,5014648;0;0,5014648;0;0,5014648;0;0,5014648;0;0,5014648;0;0,5014648;0;0,5014648;0;0,5014648;0;0,5014648;0;0,5014648;0;0,5014648;0;0,5014648;0;0,5014648;0;0,5014648;0;0,5014648;0;0,5014648;0;0,5014648;0;0,5014648;0;0,5014648;0;0,5014648;0;0,5014648;0;0,5014648;0;0,5014648;
9550.1926;0;0,5014648;0;0,5014648;0;0,5014648;0;0,5014648;0;0,5014648;0;0,5014648;0;0,5014648;0;0,5014648;0;0,5014648;0;0,5014648;0;0,5014648;0;0,5014648;0;0,5014648;0;0,5014648;0;0,5014648;0;0,5014648;0;0,5014648;0;0,5014648;0;0,5014648;0;0,5014648;0;0,5014648;0;0,5014648;0;0,5014648;0;0,5014648;0;0,5014648;
9650.9477;0;0,5014648;0;0,5014648;0;0,5014648;0;0,5014648;0;0,5014648;0;0,5014648;0;0,5014648;0;0,5014648;0;0,5014648;0;0,5014648;0;0,5014648;0;0,5014648;0;0,5014648;0;0,5014648;0;0,5014648;0;0,5014648;0;0,5014648;0;0,5014648;0;0,5014648;0;0,5014648;0;0,5014648;0;0,5014648;0;0,5014648;0;0,5014648;0;0,5014648;
9751.6996;0;0,5014648;0;0,5014648;0;0,5014648;0;0,5014648;0;0,5014648;0;0,5014648;0;0,5014648;0;0,5014648;0;0,5014648;0;0,5014648;0;0,5014648;0;0,5014648;0;0,5014648;0;0,5014648;0;0,5014648;0;0,5014648;0;0,5014648;0;0,5014648;0;0,5014648;0;0,5014648;0;0,5014648;0;0,5014648;0;0,5014648;0;0,5014648;0;0,5014648;
9852.3826;0;0,5014648;0;0,5014648;0;0,5014648;0;0,5014648;0;0,5014648;0;0,5014648;0;0,5014648;0;0,5014648;0;0,5014648;0;0,5014648;0;0,5014648;0;0,5014648;0;0,5014648;0;0,5014648;0;0,5014648;0;0,5014648;0;0,5014648;0;0,5014648;0;0,5014648;0;0,5014648;0;0,5014648;0;0,5014648;0;0,5014648;0;0,5014648;0;0,5014648;
9953.1304;0;0,5014648;0;0,5014648;0;0,166748;0;-0,4997559;0;-0,4997559;0;-0,4997559;0;-0,4997559;0;-0,4997559;0;-0,4997559;0;-0,4997559;0;-0,4997559;0;-0,4997559;0;-0,4997559;0;-0,4997559;0;-0,4997559;0;-0,4997559;0;-0,4997559;0;-0,4997559;0;-0,4997559;0;-0,4997559;0;-0,4997559;0;-0,4997559;0;-0,4997559;0;-0,4997559;0;-0,4997559;
10053.839;0;-0,4997559;0;-0,4997559;0;-0,4997559;0;-0,4997559;0;-0,4997559;0;-0,4997559;0;-0,4997559;0;-0,4997559;0;-0,4997559;0;-0,4997559;0;-0,4997559;0;-0,4997559;0;-0,4997559;0;-0,4997559;0;-0,4997559;0;-0,4997559;0;-0,4997559;0;0,5014648;0;0,5014648;0;0,5014648;0;0,5014648;0;0,5014648;0;0,5014648;0;0,5014648;0;0,5014648;
10154.3094;0;0,5014648;0;0,331543;0;-0,4997559;0;-0,4997559;0;-0,4997559;0;-0,4997559;0;-0,4997559;0;-0,4997559;0;0,4731445;0;0,5014648;0;0,5014648;0;0,5014648;0;0,5014648;0;0,5014648;0;0,5014648;0;0,5014648;0;0,5014648;0;0,5014648;0;-0,4997559;0;-0,4997559;0;-0,4997559;0;-0,4997559;0;-0,4997559;0;-0,4997559;0;-0,4997559;
10255.05;0;-0,4997559;0;-0,4997559;0;-0,4997559;0;-0,4997559;0;-0,4997559;0;-0,4997559;0;-0,4997559;0;-0,4997559;0;-0,4997559;0;-0,4997559;0;-0,4997559;0;-0,4997559;0;-0,4997559;0;-0,4997559;0;-0,4699707;0;0,5014648;0;0,5014648;0;0,5014648;0;0,5014648;0;0,5014648;0;0,5014648;0;0,5014648;0;0,5014648;0;0,5014648;0;0,5014648;
10355.7512;0;0,5014648;0;0,5014648;0;0,5014648;0;0,5014648;0;0,5014648;0;0,5014648;0;0,5014648;0;0,5014648;0;0,5014648;0;0,5014648;0;0,5014648;0;0,5014648;0;0,5014648;0;0,5014648;0;0,5014648;0;0,5014648;0;0,5014648;0;-0,458252;0;-0,4997559;0;-0,4997559;0;-0,4997559;0;-0,4997559;0;-0,4997559;0;-0,4997559;0;-0,4997559;
10456.6815;0;-0,4997559;0;-0,4997559;0;-0,4997559;0;-0,3632813;0;0,5014648;0;0,5014648;0;0,5014648;0;0,5014648;0;0,5014648;0;0,5014648;0;0,5014648;0;0,5014648;0;-0,3266602;0;-0,1132813;0;-0,4997559;0;-0,4997559;0;-0,4997559;0;-0,4997559;0;-0,4997559;0;-0,4997559;0;-0,4997559;0;-0,4997559;0;-0,4997559;0;-0,4997559;0;-0,4997559;
10557.4522;0;-0,4997559;0;-0,4997559;0;-0,4997559;0;-0,4997559;0;-0,4997559;0;-0,4997559;0;-0,4997559;0;-0,4997559;0;-0,4997559;0;-0,4997559;0;-0,4997559;0;-0,4997559;0;-0,2617188;0;0,5014648;0;0,5014648;0;0,5014648;0;0,5014648;0;0,5014648;0;0,5014648;0;0,5014648;0;0,5014648;0;0,5014648;0;0,5014648;0;0,5014648;0;0,5014648;
10658.1397;0;0,5014648;0;0,5014648;0;0,5014648;0;0,5014648;0;-0,4997559;0;-0,4997559;0;-0,4997559;0;-0,4997559;0;-0,4997559;0;-0,4997559;0;-0,4997559;0;-0,4997559;0;-0,4997559;0;-0,4997559;0;-0,4997559;0;-0,4997559;0;-0,4997559;0;-0,4997559;0;-0,4997559;0;-0,4997559;0;-0,4997559;0;-0,4997559;0;-0,4997559;0;-0,4997559;0;-0,4997559;
10758.8264;0;-0,4997559;0;-0,4997559;0;-0,4997559;0;-0,4997559;0;-0,4997559;0;-0,4997559;0;-0,4997559;0;-0,4997559;0;-0,4997559;0;-0,4997559;0;-0,4997559;0;-0,4997559;0;-0,4997559;0;-0,4997559;0;-0,4997559;0;-0,4997559;0;-0,4997559;0;-0,4997559;0;-0,4997559;0;-0,4997559;0;-0,4997559;0;-0,4997559;0;-0,4997559;0;-0,4997559;0;-0,4997559;
10859.5369;0;-0,4997559;0;-0,4997559;0;-0,4997559;0;-0,4997559;0;-0,4997559;0;-0,4997559;0;-0,4997559;0;-0,4997559;0;-0,4997559;0;-0,4997559;0;-0,4997559;0;-0,4997559;0;-0,4997559;0;-0,4997559;0;-0,4997559;0;-0,4997559;0;-0,4997559;0;-0,4997559;0;-0,4997559;0;-0,4997559;0;-0,4997559;0;-0,4997559;0;-0,4997559;0;-0,4997559;0;-0,4997559;
10959.5733;0;-0,4997559;0;-0,4997559;0;-0,4997559;0;-0,4997559;0;-0,4997559;0;-0,4997559;0;-0,4997559;0;-0,4997559;0;-0,4997559;0;-0,4997559;0;-0,4997559;0;-0,4997559;0;-0,4997559;0;-0,4997559;0;-0,4997559;0;-0,4997559;0;-0,4997559;0;-0,4997559;0;-0,4997559;0;-0,4997559;0;-0,4997559;0;0,3349609;0;0,5014648;0;0,5014648;0;0,5014648;
11059.7308;0;-0,4997559;0;-0,4997559;0;-0,4997559;0;-0,4997559;0;-0,4997559;0;-0,3466797;0;-0,4997559;0;-0,4997559;0;-0,4997559;0;-0,4997559;0;-0,4997559;0;-0,4997559;0;-0,4997559;0;-0,4997559;0;-0,4997559;0;-0,4997559;0;-0,4997559;0;-0,4997559;0;-0,4997559;0;-0,4997559;0;-0,4997559;0;-0,4997559;0;-0,4997559;0;-0,4997559;0;-0,4997559;
11160.4606;0;-0,4997559;0;-0,4997559;0;-0,4997559;0;-0,4997559;0;-0,4997559;0;-0,4997559;0;-0,4997559;0;-0,4997559;0;-0,4997559;0;-0,4997559;0;-0,4997559;0;-0,4997559;0;-0,4997559;0;-0,4997559;0;-0,4997559;0;-0,4997559;0;-0,4997559;0;-0,4997559;0;-0,4997559;0;-0,4997559;0;-0,4997559;0;-0,4997559;0;-0,4997559;0;-0,4997559;0;-0,4997559;
11260.9815;0;-0,4997559;0;-0,4997559;0;-0,4997559;0;-0,4997559;0;-0,4997559;0;-0,4997559;0;-0,4997559;0;-0,4997559;0;-0,4997559;0;0,5014648;0;0,5014648;0;0,5014648;0;0,5014648;0;0,5014648;0;0,5014648;0;0,5014648;0;0,5014648;0;0,5014648;0;0,5014648;0;0,5014648;0;0,5014648;0;0,5014648;0;0,5014648;0;0,5014648;0;0,5014648;
11361.8122;0;0,5014648;0;0,5014648;0;0,5014648;0;0,5014648;0;0,5014648;0;0,5014648;0;0,5014648;0;0,5014648;0;0,5014648;0;0,5014648;0;0,5014648;0;0,5014648;0;0,5014648;0;0,5014648;0;0,5014648;0;0,5014648;0;0,5014648;0;0,5014648;0;0,5014648;0;0,5014648;0;0,5014648;0;0,5014648;0;0,5014648;0;0,5014648;0;0,5014648;
11462.5674;0;0,5014648;0;0,5014648;0;0,5014648;0;0,5014648;0;0,5014648;0;0,5014648;0;0,5014648;0;0,5014648;0;0,5014648;0;0,5014648;0;0,5014648;0;0,5014648;0;0,5014648;0;0,5014648;0;0,5014648;0;0,5014648;0;0,5014648;0;0,5014648;0;0,5014648;0;0,5014648;0;0,5014648;0;0,5014648;0;0,5014648;0;0,5014648;0;0,5014648;
11563.2579;0;0,5014648;0;0,5014648;0;0,5014648;0;0,5014648;0;0,5014648;0;0,5014648;0;0,5014648;0;0,5014648;0;0,5014648;0;0,5014648;0;0,5014648;0;0,5014648;0;0,5014648;0;0,5014648;0;0,5014648;0;0,5014648;0;0,5014648;0;0,5014648;0;0,5014648;0;0,5014648;0;0,5014648;0;0,5014648;0;0,5014648;0;0,5014648;0;0,5014648;
11663.9926;0;0,5014648;0;0,5014648;0;0,5014648;0;0,5014648;0;0,5014648;0;0,5014648;0;0,5014648;0;0,5014648;0;0,5014648;0;0,5014648;0;0,5014648;0;0,5014648;0;0,5014648;0;0,5014648;0;0,5014648;0;0,5014648;0;0,5014648;0;0,5014648;0;0,5014648;0;0,5014648;0;0,5014648;0;0,5014648;0;0,5014648;0;0,5014648;0;0,5014648;
11764.2847;0;0,5014648;0;0,5014648;0;0,5014648;0;0,5014648;0;0,5014648;0;0,5014648;0;0,5014648;0;0,5014648;0;0,5014648;0;0,5014648;0;0,5014648;0;0,5014648;0;0,5014648;0;0,5014648;0;0,5014648;0;0,5014648;0;0,5014648;0;0,5014648;0;0,5014648;0;0,5014648;0;0,5014648;0;0,5014648;0;0,5014648;0;0,5014648;0;0,5014648;
11864.4218;0;0,5014648;0;0,5014648;0;0,5014648;0;0,5014648;0;0,5014648;0;0,5014648;0;0,5014648;0;0,5014648;0;0,5014648;0;0,5014648;0;0,5014648;0;0,5014648;0;0,5014648;0;0,5014648;0;0,5014648;0;0,5014648;0;0,5014648;0;0,5014648;0;0,5014648;0;0,5014648;0;0,5014648;0;0,5014648;0;0,5014648;0;0,5014648;0;0,5014648;
11965.1268;0;0,5014648;0;0,5014648;0;0,5014648;0;0,5014648;0;0,5014648;0;0,5014648;0;0,5014648;0;0,5014648;0;0,5014648;0;0,5014648;0;0,5014648;0;0,5014648;0;-0,09838867;0;-0,4997559;0;-0,4997559;0;-0,4997559;0;-0,4997559;0;-0,4997559;0;-0,4997559;0;-0,4997559;0;-0,4997559;0;-0,4997559;0;-0,4997559;0;-0,4997559;0;-0,4997559;
12065.8357;0;-0,4997559;0;-0,4997559;0;-0,4997559;0;-0,4997559;0;-0,4997559;0;-0,4997559;0;-0,4997559;0;-0,4997559;0;-0,4997559;0;-0,4997559;0;-0,4997559;0;-0,4997559;0;-0,4997559;0;-0,4997559;0;-0,4997559;0;-0,4997559;0;-0,4997559;0;-0,4997559;0;-0,4997559;0;-0,4997559;0;-0,4997559;0;-0,4997559;0;-0,4997559;0;-0,4997559;0;-0,4997559;
12166.5779;0;-0,4997559;0;-0,4997559;0;-0,4997559;0;-0,4997559;0;-0,4997559;0;-0,4997559;0;-0,4997559;0;-0,4997559;0;-0,4997559;0;-0,4997559;0;-0,4997559;0;-0,4997559;0;-0,4997559;0;-0,4997559;0;-0,4997559;0;-0,4997559;0;-0,4997559;0;-0,4997559;0;-0,4997559;0;-0,4997559;0;-0,4997559;0;-0,4997559;0;-0,4997559;0;-0,4997559;0;-0,4997559;
12267.2915;0;-0,4997559;0;-0,4997559;0;-0,4997559;0;-0,4997559;0;-0,4997559;0;-0,4997559;0;-0,4997559;0;-0,4997559;0;-0,4997559;0;-0,4997559;0;-0,4997559;0;-0,4997559;0;-0,4997559;0;-0,4997559;0;-0,4997559;0;-0,4997559;0;-0,4997559;0;-0,4997559;0;-0,4997559;0;-0,4997559;0;-0,4997559;0;-0,4997559;0;-0,4997559;0;-0,4997559;0;-0,4997559;
12367.6926;0;-0,4997559;0;-0,4997559;0;-0,4997559;0;-0,4997559;0;-0,4997559;0;-0,4997559;0;-0,4997559;0;-0,4997559;0;-0,4997559;0;-0,4997559;0;-0,4997559;0;-0,4997559;0;-0,4997559;0;-0,4997559;0;-0,4997559;0;-0,4997559;0;-0,4997559;0;-0,4997559;0;0,5014648;0;0,5014648;0;0,5014648;0;-0,4997559;0;-0,4997559;0;-0,4997559;0;-0,4997559;
12468.1479;0;-0,4997559;0;-0,4997559;0;-0,4997559;0;-0,4997559;0;-0,4997559;0;-0,4997559;0;-0,4997559;0;-0,4997559;0;-0,4997559;0;-0,4997559;0;-0,4997559;0;-0,4997559;0;-0,4997559;0;-0,4997559;0;-0,4997559;0;-0,4997559;0;-0,4997559;0;-0,4997559;0;-0,4997559;0;-0,4997559;0;-0,4997559;0;-0,4997559;0;-0,4997559;0;-0,4997559;0;-0,4997559;
12568.8768;0;-0,4997559;0;-0,4997559;0;-0,4997559;0;-0,4997559;0;-0,4997559;0;-0,4997559;0;-0,4997559;0;-0,4997559;0;-0,4997559;0;-0,4997559;0;-0,4997559;0;-0,4997559;0;-0,4997559;0;-0,4997559;0;-0,4997559;0;-0,4997559;0;-0,4997559;0;-0,4997559;0;-0,4997559;0;-0,4997559;0;-0,4997559;0;-0,4997559;0;-0,4997559;0;-0,4997559;0;-0,4997559;
12668.9687;0;-0,4997559;0;-0,4997559;0;-0,4997559;0;-0,4997559;0;-0,4997559;0;-0,4997559;0;-0,4997559;0;-0,4997559;0;-0,4997559;0;-0,4997559;0;-0,4997559;0;-0,4997559;0;-0,4997559;0;-0,4997559;0;-0,4997559;0;-0,4997559;0;-0,4997559;0;-0,4997559;0;-0,3015137;0;-0,4997559;0;-0,4997559;0;-0,4997559;0;-0,4997559;0;-0,4997559;0;-0,4997559;
12769.644;0;-0,4997559;0;-0,4997559;0;-0,4997559;0;-0,06494141;0;0,5014648;0;0,5014648;0;0,5014648;0;0,5014648;0;0,5014648;0;0,5014648;0;0,5014648;0;0,5014648;0;0,5014648;0;0,5014648;0;0,5014648;0;0,5014648;0;0,5014648;0;0,5014648;0;0,5014648;0;0,5014648;0;0,5014648;0;0,5014648;0;0,5014648;0;0,5014648;0;0,5014648;
12869.7595;0;0,5014648;0;0,5014648;0;0,5014648;0;0,5014648;0;0,5014648;0;0,5014648;0;0,5014648;0;0,5014648;0;0,5014648;0;0,5014648;0;0,5014648;0;0,5014648;0;0,5014648;0;0,5014648;0;0,5014648;0;0,5014648;0;0,5014648;0;0,5014648;0;0,5014648;0;0,5014648;0;0,5014648;0;0,5014648;0;0,5014648;0;0,5014648;0;0,5014648;
12970.5663;0;0,5014648;0;0,5014648;0;0,5014648;0;0,5014648;0;0,5014648;0;0,5014648;0;0,5014648;0;0,5014648;0;0,5014648;0;0,5014648;0;0,5014648;0;0,5014648;0;0,5014648;0;0,5014648;0;0,5014648;0;0,5014648;0;0,5014648;0;0,5014648;0;0,5014648;0;0,5014648;0;0,5014648;0;0,5014648;0;0,5014648;0;0,5014648;0;0,5014648;
13071.2473;0;0,5014648;0;0,5014648;0;0,5014648;0;0,5014648;0;0,5014648;0;0,5014648;0;0,5014648;0;0,5014648;0;0,5014648;0;0,5014648;0;0,5014648;0;0,5014648;0;0,5014648;0;0,5014648;0;0,5014648;0;0,5014648;0;0,5014648;0;0,5014648;0;0,5014648;0;0,5014648;0;0,5014648;0;0,5014648;0;0,5014648;0;0,5014648;0;0,5014648;
13171.4654;0;0,5014648;0;0,5014648;0;0,5014648;0;0,5014648;0;0,5014648;0;0,5014648;0;0,5014648;0;0,5014648;0;0,5014648;0;0,5014648;0;0,5014648;0;0,5014648;0;0,5014648;0;0,5014648;0;0,5014648;0;0,5014648;0;0,5014648;0;0,5014648;0;0,5014648;0;0,5014648;0;0,5014648;0;0,5014648;0;0,5014648;0;0,5014648;0;0,5014648;
13271.6095;0;0,5014648;0;0,5014648;0;0,5014648;0;0,5014648;0;0,5014648;0;0,5014648;0;0,5014648;0;0,5014648;0;0,5014648;0;0,5014648;0;0,5014648;0;0,5014648;0;0,5014648;0;0,5014648;0;0,5014648;0;0,5014648;0;0,5014648;0;0,5014648;0;0,5014648;0;0,5014648;0;0,5014648;0;0,5014648;0;0,5014648;0;0,5014648;0;0,5014648;
13372.1734;0;0,5014648;0;0,5014648;0;0,5014648;0;0,5014648;0;0,5014648;0;0,5014648;0;0,5014648;0;0,5014648;0;0,5014648;0;0,5014648;0;0,5014648;0;0,5014648;0;0,5014648;0;0,5014648;0;0,5014648;0;0,5014648;0;0,5014648;0;0,5014648;0;0,5014648;0;0,5014648;0;0,5014648;0;0,5014648;0;0,5014648;0;0,5014648;0;0,5014648;
13472.6767;0;0,5014648;0;0,5014648;0;0,5014648;0;0,5014648;0;0,5014648;0;0,5014648;0;0,5014648;0;0,5014648;0;0,5014648;0;0,5014648;0;0,5014648;0;0,5014648;0;0,5014648;0;0,5014648;0;0,5014648;0;0,5014648;0;0,5014648;0;0,5014648;0;0,5014648;0;0,5014648;0;0,5014648;0;0,5014648;0;0,5014648;0;0,5014648;0;0,5014648;
13572.6896;0;0,5014648;0;0,5014648;0;0,5014648;0;0,5014648;0;0,5014648;0;0,5014648;0;0,5014648;0;0,5014648;0;0,373291;0;0,5014648;0;0,5014648;0;0,4199219;0;-0,4931641;0;-0,458252;0;0,5014648;0;0,5014648;0;0,5014648;0;0,123291;0;-0,4997559;0;0,5014648;0;0,5014648;0;0,4482422;0;-0,4997559;0;-0,4997559;0;-0,4997559;
13673.4385;0;-0,1049805;0;-0,4997559;0;-0,4997559;0;-0,4997559;0;-0,4997559;0;-0,4997559;0;-0,4997559;0;-0,4997559;0;-0,4997559;0;-0,4997559;0;-0,4997559;0;-0,4997559;0;-0,4997559;0;-0,4997559;0;-0,4997559;0;-0,4997559;0;-0,4997559;0;-0,4997559;0;-0,4997559;0;-0,4997559;0;-0,4997559;0;-0,4997559;0;-0,4997559;0;-0,4997559;0;-0,4997559;
13774.1632;0;-0,4997559;0;-0,4997559;0;-0,4997559;0;-0,4997559;0;-0,4997559;0;-0,4997559;0;-0,4997559;0;-0,4997559;0;-0,4997559;0;-0,4997559;0;-0,4997559;0;-0,4997559;0;-0,4997559;0;-0,4997559;0;-0,4997559;0;-0,4997559;0;-0,4997559;0;-0,4997559;0;-0,4997559;0;-0,4997559;0;-0,4997559;0;-0,4997559;0;-0,4997559;0;-0,4997559;0;-0,4997559;
13875.1464;0;-0,4997559;0;-0,4997559;0;-0,4997559;0;-0,4997559;0;-0,4997559;0;-0,4997559;0;-0,4997559;0;-0,4997559;0;-0,4997559;0;-0,4997559;0;-0,4997559;0;-0,4997559;0;-0,4997559;0;-0,4997559;0;-0,4997559;0;-0,4997559;0;-0,4997559;0;-0,4997559;0;-0,4997559;0;-0,4997559;0;-0,4997559;0;-0,4997559;0;-0,4997559;0;-0,4997559;0;-0,4997559;
13975.8624;0;-0,4997559;0;-0,4997559;0;-0,4997559;0;-0,4997559;0;-0,4997559;0;-0,4997559;0;-0,4997559;0;-0,4997559;0;-0,4997559;0;-0,4997559;0;-0,4997559;0;-0,4997559;0;-0,4997559;0;-0,4997559;0;-0,4997559;0;-0,4997559;0;-0,4997559;0;-0,4997559;0;-0,4997559;0;-0,4997559;0;-0,4997559;0;-0,4997559;0;-0,4997559;0;-0,4997559;0;-0,4997559;
14076.6443;0;-0,2199707;0;-0,4997559;0;-0,4997559;0;-0,4997559;0;-0,4997559;0;-0,4431152;0;-0,4997559;0;-0,4997559;0;-0,4997559;0;-0,4997559;0;-0,4997559;0;-0,4997559;0;-0,4997559;0;-0,4997559;0;-0,4997559;0;-0,4997559;0;-0,4997559;0;-0,4997559;0;-0,4997559;0;-0,4997559;0;-0,4997559;0;-0,4997559;0;-0,4997559;0;-0,4997559;0;-0,4997559;
14176.7899;0;-0,4997559;0;-0,4997559;0;-0,4997559;0;-0,4997559;0;-0,4997559;0;-0,4997559;0;-0,4997559;0;-0,4997559;0;-0,4997559;0;-0,4997559;0;-0,4997559;0;-0,4997559;0;-0,4997559;0;-0,4997559;0;-0,4997559;0;-0,4997559;0;-0,4997559;0;-0,4997559;0;-0,4997559;0;-0,4997559;0;-0,4997559;0;-0,4997559;0;-0,4997559;0;-0,4997559;0;-0,4997559;
14277.7694;0;-0,4997559;0;-0,4997559;0;-0,4997559;0;-0,4997559;0;-0,4997559;0;-0,4997559;0;-0,4997559;0;-0,4997559;0;-0,4997559;0;-0,4997559;0;-0,4997559;0;-0,4997559;0;-0,4997559;0;-0,4997559;0;-0,4997559;0;-0,4997559;0;-0,4997559;0;-0,4997559;0;-0,4997559;0;-0,4997559;0;-0,4997559;0;-0,4997559;0;-0,4997559;0;-0,4997559;0;-0,4997559;
14377.913;0;-0,4997559;0;-0,4997559;0;-0,4997559;0;-0,4997559;0;-0,4997559;0;-0,4997559;0;-0,4997559;0;-0,4997559;0;-0,4997559;0;-0,4997559;0;-0,4997559;0;-0,4997559;0;-0,4997559;0;-0,4997559;0;-0,4997559;0;-0,4997559;0;-0,4997559;0;-0,4997559;0;-0,4997559;0;0,329834;0;0,5014648;0;-0,2949219;0;-0,4997559;0;-0,4997559;0;-0,4748535;
